##TITLE=No title given
##JCAMP-DX=5.00 $$ WebMO output
##DATA TYPE=IR SPECTRUM
##DATA CLASS=XYDATA
##DATE=Sun Jun 07 15:16:35 GMT+1000 2020
##ORIGIN=WebMO
##OWNER=public domain
##SPECTROMETER/DATA SYSTEM=computed
##XUNITS=1/CM
##YUNITS=ARBITRARY UNITS
##XFACTOR=1.0
##YFACTOR=1.0
##FIRSTX=236.204
##LASTX=3343.0651923000123
##FIRSTY=0
##NPOINTS=2000
##XYDATA=(X++(Y..Y))
236.204 0
237.7582077 0
239.31241540000002 0
240.86662310000003 0
242.42083080000003 0
243.97503850000004 0
245.52924620000005 0
247.08345390000005 0
248.63766160000006 0
250.19186930000006 0
251.74607700000007 0
253.30028470000008 0
254.85449240000008 0
256.4087001000001 2.423886896551724
257.9629078000001 2.6939075434839266
259.5171155000001 3.011551204444417
261.0713232000001 3.388671395090716
262.6255309000001 3.8410372870009937
264.1797386000001 4.389987325694304
265.7339463000001 5.06495405218524
267.28815400000013 5.907423327571636
268.84236170000014 6.977332850734533
270.39656940000015 8.363773496927282
271.95077710000015 10.203603735717637
273.50498480000016 12.715327812134435
275.05919250000017 16.264075125811058
276.61340020000017 21.494057091051793
278.1676079000002 29.618144810812613
279.7218156000002 43.10158565444178
281.2760233000002 67.39346162008574
282.8302310000002 115.27665450052902
284.3844387000002 212.28499715454961
285.9386464000002 339.46288207417376
287.4928541000002 295.8292467937948
289.0470618000002 166.274725962901
290.6012695000002 92.18905726098099
292.15547720000023 55.92928065021903
293.70968490000024 36.88473517895156
295.26389260000025 25.945339627476354
296.81810030000025 19.167015049498783
298.37230800000026 14.705303089326621
299.92651570000027 11.623621233313932
301.4807234000003 9.410874016741502
303.0349311000003 7.770749253153071
304.5891388000003 6.522531781989954
306.1433465000003 5.551207232939204
307.6975542000003 4.780877810561011
309.2517619000003 4.159880192173732
310.8059696000003 3.6520904040396913
312.3601773000003 3.2316510760854853
313.9143850000003 2.8796682262427895
315.46859270000033 2.5820816499443096
317.02280040000034 0
318.57700810000034 0
320.13121580000035 0
321.68542350000035 0
323.23963120000036 0
324.79383890000037 0
326.3480466000004 0
327.9022543000004 0
329.4564620000004 0
331.0106697000004 0
332.5648774000004 0
334.1190851000004 0
335.6732928000004 0
337.2275005000004 0
338.7817082000004 0
340.33591590000043 0
341.89012360000044 0
343.44433130000044 0
344.99853900000045 0
346.55274670000045 0
348.10695440000046 0
349.66116210000047 0
351.2153698000005 0
352.7695775000005 0
354.3237852000005 0
355.8779929000005 0
357.4322006000005 0
358.9864083000005 0
360.5406160000005 0
362.0948237000005 0
363.6490314000005 0
365.20323910000053 0
366.75744680000054 0
368.31165450000054 0
369.86586220000055 0
371.42006990000056 0
372.97427760000056 0
374.52848530000057 0
376.0826930000006 0
377.6369007000006 0
379.1911084000006 0
380.7453161000006 0
382.2995238000006 0
383.8537315000006 0
385.4079392000006 0
386.9621469000006 0
388.5163546000006 0
390.07056230000063 0
391.62477000000064 0
393.17897770000064 0
394.73318540000065 0
396.28739310000066 0
397.84160080000066 0
399.39580850000067 0
400.9500162000007 0
402.5042239000007 0
404.0584316000007 0
405.6126393000007 0
407.1668470000007 0
408.7210547000007 0
410.2752624000007 0
411.8294701000007 0
413.3836778000007 0
414.93788550000073 0
416.49209320000074 0
418.04630090000074 0
419.60050860000075 0
421.15471630000076 0
422.70892400000076 0
424.26313170000077 0
425.8173394000008 0
427.3715471000008 0
428.9257548000008 0
430.4799625000008 0
432.0341702000008 0
433.5883779000008 0
435.1425856000008 0
436.6967933000008 0
438.2510010000008 0
439.80520870000083 0
441.35941640000084 0
442.91362410000085 0
444.46783180000085 0
446.02203950000086 0
447.57624720000086 0
449.13045490000087 0
450.6846626000009 0
452.2388703000009 0
453.7930780000009 0
455.3472857000009 0
456.9014934000009 0
458.4557011000009 0
460.0099088000009 0
461.5641165000009 0
463.1183242000009 0
464.67253190000093 0
466.22673960000094 0
467.78094730000095 0
469.33515500000095 0
470.88936270000096 0
472.44357040000097 0
473.99777810000097 0
475.551985800001 0
477.106193500001 0
478.660401200001 0
480.214608900001 0
481.768816600001 0
483.323024300001 0
484.877232000001 0
486.431439700001 0
487.985647400001 0
489.53985510000103 0
491.09406280000104 0
492.64827050000105 0
494.20247820000105 0
495.75668590000106 0
497.31089360000107 0
498.8651013000011 0
500.4193090000011 0
501.9735167000011 0
503.5277244000011 0
505.0819321000011 0
506.6361398000011 0
508.1903475000011 0
509.7445552000011 0
511.2987629000011 0
512.8529706000011 0
514.4071783000011 0
515.9613860000011 0
517.5155937000011 0
519.0698014000011 0
520.6240091000011 0
522.1782168000011 0
523.7324245000011 0
525.2866322000011 0
526.8408399000011 0
528.3950476000011 0
529.9492553000011 0
531.5034630000011 0
533.0576707000012 0
534.6118784000012 0
536.1660861000012 0
537.7202938000012 0
539.2745015000012 0
540.8287092000012 0
542.3829169000012 0
543.9371246000012 0
545.4913323000012 0
547.0455400000012 0
548.5997477000012 0
550.1539554000012 0
551.7081631000012 0
553.2623708000012 0
554.8165785000012 0
556.3707862000012 0
557.9249939000013 0
559.4792016000013 0
561.0334093000013 0
562.5876170000013 0
564.1418247000013 0
565.6960324000013 0
567.2502401000013 0
568.8044478000013 0
570.3586555000013 0
571.9128632000013 0
573.4670709000013 0
575.0212786000013 0
576.5754863000013 0
578.1296940000013 0
579.6839017000013 0
581.2381094000013 0
582.7923171000014 0
584.3465248000014 0
585.9007325000014 0
587.4549402000014 0
589.0091479000014 0
590.5633556000014 0
592.1175633000014 0
593.6717710000014 0
595.2259787000014 0
596.7801864000014 0
598.3343941000014 0
599.8886018000014 0
601.4428095000014 0
602.9970172000014 0
604.5512249000014 0
606.1054326000014 0
607.6596403000015 0
609.2138480000015 0
610.7680557000015 0
612.3222634000015 0
613.8764711000015 0
615.4306788000015 0
616.9848865000015 0
618.5390942000015 0
620.0933019000015 0
621.6475096000015 0
623.2017173000015 0
624.7559250000015 0
626.3101327000015 0
627.8643404000015 0
629.4185481000015 0
630.9727558000016 0
632.5269635000016 0
634.0811712000016 0
635.6353789000016 0
637.1895866000016 0
638.7437943000016 0
640.2980020000016 0
641.8522097000016 0
643.4064174000016 0
644.9606251000016 0
646.5148328000016 0
648.0690405000016 0
649.6232482000016 0
651.1774559000016 0
652.7316636000016 0
654.2858713000016 0
655.8400790000017 0
657.3942867000017 0
658.9484944000017 0
660.5027021000017 0
662.0569098000017 0
663.6111175000017 0
665.1653252000017 0
666.7195329000017 0
668.2737406000017 0
669.8279483000017 0
671.3821560000017 0
672.9363637000017 0
674.4905714000017 0
676.0447791000017 0
677.5989868000017 0
679.1531945000017 0
680.7074022000018 0
682.2616099000018 0
683.8158176000018 0
685.3700253000018 0
686.9242330000018 0
688.4784407000018 0
690.0326484000018 0
691.5868561000018 0
693.1410638000018 0
694.6952715000018 0
696.2494792000018 0
697.8036869000018 0
699.3578946000018 0
700.9121023000018 0
702.4663100000018 0
704.0205177000018 0
705.5747254000019 0
707.1289331000019 0
708.6831408000019 0
710.2373485000019 0
711.7915562000019 0
713.3457639000019 0
714.8999716000019 0
716.4541793000019 0
718.0083870000019 0
719.5625947000019 0
721.1168024000019 0
722.6710101000019 0
724.2252178000019 0
725.7794255000019 0
727.3336332000019 0
728.887840900002 0
730.442048600002 0
731.996256300002 0
733.550464000002 0
735.104671700002 0
736.658879400002 0
738.213087100002 0
739.767294800002 0
741.321502500002 0
742.875710200002 0
744.429917900002 0
745.984125600002 0
747.538333300002 0
749.092541000002 0
750.646748700002 0
752.200956400002 0
753.755164100002 0
755.309371800002 0
756.8635795000021 0
758.4177872000021 0
759.9719949000021 0
761.5262026000021 0
763.0804103000021 0
764.6346180000021 0
766.1888257000021 0
767.7430334000021 0
769.2972411000021 0
770.8514488000021 0
772.4056565000021 0
773.9598642000021 0
775.5140719000021 0
777.0682796000021 0
778.6224873000021 0
780.1766950000022 0
781.7309027000022 0
783.2851104000022 0
784.8393181000022 0
786.3935258000022 0
787.9477335000022 0
789.5019412000022 0
791.0561489000022 0
792.6103566000022 0
794.1645643000022 0
795.7187720000022 0
797.2729797000022 0
798.8271874000022 0
800.3813951000022 0
801.9356028000022 0
803.4898105000022 0
805.0440182000023 0
806.5982259000023 0
808.1524336000023 0
809.7066413000023 0
811.2608490000023 0
812.8150567000023 0
814.3692644000023 0
815.9234721000023 0
817.4776798000023 0
819.0318875000023 0
820.5860952000023 0
822.1403029000023 0
823.6945106000023 0
825.2487183000023 0
826.8029260000023 0
828.3571337000024 0
829.9113414000024 0
831.4655491000024 0
833.0197568000024 0
834.5739645000024 0
836.1281722000024 0
837.6823799000024 0
839.2365876000024 0
840.7907953000024 0
842.3450030000024 0
843.8992107000024 0
845.4534184000024 0
847.0076261000024 0
848.5618338000024 0
850.1160415000024 0
851.6702492000024 0
853.2244569000025 0
854.7786646000025 0
856.3328723000025 0
857.8870800000025 0
859.4412877000025 0
860.9954954000025 0
862.5497031000025 0
864.1039108000025 0
865.6581185000025 0
867.2123262000025 0
868.7665339000025 0
870.3207416000025 0
871.8749493000025 0
873.4291570000025 0
874.9833647000025 0
876.5375724000025 0
878.0917801000026 0
879.6459878000026 0
881.2001955000026 0
882.7544032000026 0
884.3086109000026 0
885.8628186000026 0
887.4170263000026 0
888.9712340000026 0
890.5254417000026 0
892.0796494000026 0
893.6338571000026 0
895.1880648000026 0
896.7422725000026 0
898.2964802000026 0
899.8506879000026 0
901.4048956000026 1.5283613793103448
902.9591033000027 1.6986206141676616
904.5133110000027 1.898908137684295
906.0675187000027 2.136698083890912
907.6217264000027 2.4219335705369747
909.1759341000027 2.7680693739456848
910.7301418000027 3.193663933888165
912.2843495000027 3.724875809156728
913.8385572000027 4.399498208776447
915.3927649000027 5.273706630531433
916.9469726000027 6.433796024741542
918.5011803000027 8.017542394813749
920.0553880000027 10.25517499510985
921.6095957000027 13.552895883627798
923.1638034000027 18.675470674834404
924.7180111000027 27.17734024429959
926.2722188000027 42.49437715295436
927.8264265000028 72.68671938668197
929.3806342000028 133.8545092675683
930.9348419000028 214.04544882421575
932.4890496000028 186.53262918881268
934.0432573000028 104.84312196193518
935.5974650000028 58.12903024194661
937.1516727000028 35.265734816261485
938.7058804000028 23.257357764422505
940.2600881000028 16.35961443421208
941.8142958000028 12.085599208440204
943.3685035000028 9.272304472932865
944.9227112000028 7.329176046127282
946.4769189000028 5.933947006027721
948.0311266000028 4.899780209926319
949.5853343000028 4.112727241976326
951.1395420000028 3.500266763866916
952.6937497000029 3.0145420626920423
954.2479574000029 2.622977267347407
955.8021651000029 2.30279471176021
957.3563728000029 2.037690249954439
958.9105805000029 1.8157504413583871
960.4647882000029 1.6281097429153923
962.0189959000029 0
963.5732036000029 0
965.1274113000029 0
966.6816190000029 0
968.2358267000029 0
969.7900344000029 0
971.3442421000029 0
972.8984498000029 0
974.4526575000029 0
976.006865200003 0
977.561072900003 0
979.115280600003 0
980.669488300003 0
982.223696000003 0
983.777903700003 0
985.332111400003 0
986.886319100003 0
988.440526800003 0
989.994734500003 0
991.548942200003 0
993.103149900003 0
994.657357600003 0
996.211565300003 0
997.765773000003 0
999.319980700003 0
1000.874188400003 0
1002.428396100003 0
1003.9826038000031 0
1005.5368115000031 0
1007.0910192000031 0
1008.6452269000031 0
1010.1994346000031 0
1011.7536423000031 0
1013.3078500000031 0
1014.8620577000031 0
1016.4162654000031 0
1017.9704731000031 0
1019.5246808000031 0
1021.0788885000031 0
1022.6330962000031 0
1024.1873039000031 0
1025.7415116000032 0
1027.2957193000032 0
1028.8499270000032 0
1030.4041347000032 0
1031.9583424000032 0
1033.5125501000032 0
1035.0667578000032 0
1036.6209655000032 0
1038.1751732000032 0
1039.7293809000032 0
1041.2835886000032 0
1042.8377963000032 0
1044.3920040000032 0
1045.9462117000032 0
1047.5004194000032 0
1049.0546271000032 0
1050.6088348000033 0
1052.1630425000033 0
1053.7172502000033 0
1055.2714579000033 0
1056.8256656000033 0
1058.3798733000033 0
1059.9340810000033 0
1061.4882887000033 0
1063.0424964000033 0
1064.5967041000033 0
1066.1509118000033 1.365944827586207
1067.7051195000033 1.5181108822578313
1069.2593272000033 1.6971141667434984
1070.8135349000033 1.909634550646091
1072.3677426000033 2.1645585122840343
1073.9219503000033 2.473911010134948
1075.4761580000034 2.854278307864351
1077.0303657000034 3.3290391355050524
1078.5845734000034 3.9319704774041555
1080.1387811000034 4.7132781498522505
1081.6929888000034 5.750086674989122
1083.2471965000034 7.1655308177773485
1084.8014042000034 9.16537373306479
1086.3556119000034 12.112651027212777
1087.9098196000034 16.69085787978945
1089.4640273000034 24.289247187731668
1091.0182350000034 37.97856675740368
1092.5724427000034 64.96241643141362
1094.1266504000034 119.63000181647377
1095.6808581000034 191.29917678352754
1097.2350658000034 166.71010107013242
1098.7892735000034 93.70160885412913
1100.3434812000035 51.95174993718957
1101.8976889000035 31.518100833610312
1103.4518966000035 20.78583505948697
1105.0061043000035 14.62110402698095
1106.5603120000035 10.801281654014323
1108.1145197000035 8.286951310116352
1109.6687274000035 6.550316074588163
1111.2229351000035 5.303355822633853
1112.7771428000035 4.379088299835328
1114.3313505000035 3.675674208664836
1115.8855582000035 3.128298938980892
1117.4397659000035 2.694191435230661
1118.9939736000035 2.344237612720958
1120.5481813000035 2.0580803520049002
1122.1023890000035 1.8211481229681918
1123.6565967000035 1.622793507566927
1125.2108044000036 1.455093090013503
1126.7650121000036 0
1128.3192198000036 0
1129.8734275000036 0
1131.4276352000036 0
1132.9818429000036 0
1134.5360506000036 0
1136.0902583000036 0
1137.6444660000036 0
1139.1986737000036 0
1140.7528814000036 0
1142.3070891000036 0
1143.8612968000036 0
1145.4155045000036 0
1146.9697122000036 0
1148.5239199000036 0
1150.0781276000037 0
1151.6323353000037 0
1153.1865430000037 0
1154.7407507000037 0
1156.2949584000037 0
1157.8491661000037 0
1159.4033738000037 0
1160.9575815000037 0
1162.5117892000037 0
1164.0659969000037 0
1165.6202046000037 0
1167.1744123000037 0
1168.7286200000037 0
1170.2828277000037 0
1171.8370354000037 0
1173.3912431000037 0
1174.9454508000038 0
1176.4996585000038 0
1178.0538662000038 0
1179.6080739000038 0
1181.1622816000038 0
1182.7164893000038 0
1184.2706970000038 0
1185.8249047000038 0
1187.3791124000038 0
1188.9333201000038 0
1190.4875278000038 0
1192.0417355000038 0
1193.5959432000038 0
1195.1501509000038 0
1196.7043586000038 0
1198.2585663000038 0
1199.8127740000039 0
1201.3669817000039 0
1202.9211894000039 0
1204.4753971000039 0
1206.0296048000039 0
1207.583812500004 0
1209.138020200004 0
1210.692227900004 0
1212.246435600004 0
1213.800643300004 0
1215.354851000004 0
1216.909058700004 0
1218.463266400004 0
1220.017474100004 0
1221.571681800004 0
1223.125889500004 0.03148689655172414
1224.680097200004 0.03499453223756376
1226.234304900004 0.03912080277733293
1227.788512600004 0.04401968830179334
1229.342720300004 0.04989603429069678
1230.896928000004 0.05702703248413183
1232.451135700004 0.06579501894550939
1234.005343400004 0.07673890537842627
1235.559551100004 0.09063729747067288
1237.113758800004 0.1086475079569298
1238.667966500004 0.13254736255985666
1240.222174200004 0.16517528602985054
1241.776381900004 0.21127440051943633
1243.330589600004 0.2792131732984755
1244.884797300004 0.38474710310895943
1246.439005000004 0.5599003693808388
1247.993212700004 0.8754579090769669
1249.547420400004 1.497472551318587
1251.101628100004 2.7576351662272045
1252.655835800004 4.409707674984971
1254.210043500004 3.842895847996065
1255.764251200004 2.1599502447941146
1257.318458900004 1.1975588932416752
1258.872666600004 0.726535333208446
1260.426874300004 0.479141928020487
1261.981082000004 0.33703644588858145
1263.5352897000041 0.24898431561615952
1265.0894974000041 0.19102556220510353
1266.6437051000041 0.15099374473720206
1268.1979128000041 0.1222496053953667
1269.7521205000041 0.10094397482469213
1271.3063282000041 0.08472931792610483
1272.8605359000042 0.07211156928543164
1274.4147436000042 0.062104797571917406
1275.9689513000042 0.05403788331249208
1277.5231590000042 0.047441567060382966
1279.0773667000042 0.0419799551161938
1280.6315744000042 0.0374076099309689
1282.1857821000042 0.0335418859335241
1283.7399898000042 0
1285.2941975000042 0
1286.8484052000042 0
1288.4026129000042 0
1289.9568206000042 0
1291.5110283000042 0
1293.0652360000042 0
1294.6194437000042 0
1296.1736514000042 0
1297.7278591000043 0
1299.2820668000043 0
1300.8362745000043 0
1302.3904822000043 0
1303.9446899000043 0
1305.4988976000043 0
1307.0531053000043 0
1308.6073130000043 0
1310.1615207000043 0
1311.7157284000043 0
1313.2699361000043 0
1314.8241438000043 0
1316.3783515000043 0.015511724137931036
1317.9325592000043 0.017239727945665067
1319.4867669000043 0.01927249640940451
1321.0409746000043 0.021685886395740667
1322.5951823000044 0.02458081310816436
1324.1493900000044 0.02809383245648093
1325.7035977000044 0.0324132987147888
1327.2578054000044 0.03780470167714132
1328.8120131000044 0.044651614129804944
1330.3662208000044 0.0535241753322075
1331.9204285000044 0.06529821444489874
1333.4746362000044 0.08137205478761605
1335.0288439000044 0.1040823509830726
1336.5830516000044 0.1375517499086497
1338.1372593000044 0.18954205018237943
1339.6914670000044 0.2758296633107111
1341.2456747000044 0.4312861242982114
1342.7998824000044 0.7377158013022967
1344.3540901000044 1.3585230891620441
1345.9082978000044 2.1724011088523296
1347.4625055000045 1.8931665808026874
1349.0167132000045 1.064079220823314
1350.5709209000045 0.5899661518046206
1352.1251286000045 0.35792081466892345
1353.6793363000045 0.2360447749482389
1355.2335440000045 0.16603784258204782
1356.7877517000045 0.1226597868152852
1358.3419594000045 0.09410695078669153
1359.8961671000045 0.07438565153822387
1361.4503748000045 0.060225121003867794
1363.0045825000045 0.049729102018507436
1364.5587902000045 0.041741103443007486
1366.1129979000045 0.03552508797021046
1367.6672056000045 0.030595345781224074
1369.2214133000045 0.026621256164897755
1370.7756210000045 0.02337164285794055
1372.3298287000046 0.020681030981107216
1373.8840364000046 0.018428508028897683
1375.4382441000046 0.016524095374470475
1376.9924518000046 0
1378.5466595000046 0
1380.1008672000046 0
1381.6550749000046 0
1383.2092826000046 0
1384.7634903000046 0
1386.3176980000046 0
1387.8719057000046 0
1389.4261134000046 0
1390.9803211000046 0
1392.5345288000046 0
1394.0887365000046 0
1395.6429442000046 0
1397.1971519000047 0
1398.7513596000047 0
1400.3055673000047 0
1401.8597750000047 0
1403.4139827000047 0
1404.9681904000047 0
1406.5223981000047 0
1408.0766058000047 0
1409.6308135000047 0
1411.1850212000047 0
1412.7392289000047 0
1414.2934366000047 0
1415.8476443000047 0
1417.4018520000047 0
1418.9560597000047 0
1420.5102674000048 0
1422.0644751000048 0
1423.6186828000048 0
1425.1728905000048 0
1426.7270982000048 0
1428.2813059000048 0
1429.8355136000048 0
1431.3897213000048 0
1432.9439290000048 0
1434.4981367000048 0
1436.0523444000048 0
1437.6065521000048 0
1439.1607598000048 0
1440.7149675000048 0
1442.2691752000048 0
1443.8233829000048 0
1445.3775906000049 0
1446.9317983000049 0
1448.4860060000049 0
1450.0402137000049 0
1451.5944214000049 0
1453.1486291000049 0
1454.702836800005 0
1456.257044500005 0
1457.811252200005 0
1459.365459900005 0
1460.919667600005 0
1462.473875300005 0
1464.028083000005 0
1465.582290700005 0
1467.136498400005 0
1468.690706100005 0
1470.244913800005 0
1471.799121500005 0
1473.353329200005 0
1474.907536900005 0
1476.461744600005 0
1478.015952300005 0
1479.570160000005 0
1481.124367700005 0
1482.678575400005 0
1484.232783100005 0
1485.786990800005 0
1487.341198500005 0
1488.895406200005 0
1490.449613900005 0
1492.003821600005 0
1493.558029300005 0
1495.112237000005 0
1496.666444700005 0
1498.220652400005 0
1499.774860100005 0
1501.329067800005 0
1502.883275500005 0
1504.437483200005 0
1505.991690900005 0
1507.545898600005 0
1509.100106300005 0
1510.6543140000051 0
1512.2085217000051 0
1513.7627294000051 0
1515.3169371000051 0
1516.8711448000051 0
1518.4253525000051 0
1519.9795602000052 0
1521.5337679000052 0
1523.0879756000052 0
1524.6421833000052 0
1526.1963910000052 0
1527.7505987000052 0
1529.3048064000052 0
1530.8590141000052 0
1532.4132218000052 0
1533.9674295000052 0
1535.5216372000052 0
1537.0758449000052 0
1538.6300526000052 0
1540.1842603000052 0
1541.7384680000052 0
1543.2926757000052 0
1544.8468834000053 0
1546.4010911000053 0
1547.9552988000053 0
1549.5095065000053 0
1551.0637142000053 0
1552.6179219000053 0
1554.1721296000053 0
1555.7263373000053 0
1557.2805450000053 0
1558.8347527000053 0
1560.3889604000053 0
1561.9431681000053 0
1563.4973758000053 0
1565.0515835000053 0
1566.6057912000053 0
1568.1599989000053 0
1569.7142066000054 0
1571.2684143000054 0
1572.8226220000054 0
1574.3768297000054 0
1575.9310374000054 0
1577.4852451000054 0
1579.0394528000054 0
1580.5936605000054 0
1582.1478682000054 0
1583.7020759000054 0
1585.2562836000054 0
1586.8104913000054 0
1588.3646990000054 0
1589.9189067000054 0
1591.4731144000054 0
1593.0273221000054 0
1594.5815298000055 0
1596.1357375000055 0
1597.6899452000055 0
1599.2441529000055 0
1600.7983606000055 0
1602.3525683000055 0
1603.9067760000055 0
1605.4609837000055 0
1607.0151914000055 0.17654068965517242
1608.5693991000055 0.19620729674742693
1610.1236068000055 0.21934246491485881
1611.6778145000055 0.2468095297495678
1613.2320222000055 0.2797570186146339
1614.7862299000055 0.31973908978925014
1616.3404376000055 0.3688994246045926
1617.8946453000055 0.4302595924827202
1619.4488530000056 0.5081850787570686
1621.0030607000056 0.6091647029272543
1622.5572684000056 0.7431663758875582
1624.1114761000056 0.9261045737485821
1625.6656838000056 1.1845730274786972
1627.2198915000056 1.5654920482222918
1628.7740992000056 2.157199545344399
1630.3283069000056 3.1392486454263326
1631.8825146000056 4.908516238767266
1633.4367223000056 8.39602710655198
1634.9909300000056 15.46150517766569
1636.5451377000056 24.72434311970722
1638.0993454000056 21.54634332296795
1639.6535531000056 12.110406156110406
1641.2077608000056 6.7144716078407445
1642.7619685000057 4.073537338707527
1644.3161762000057 2.6864523239529605
1645.8703839000057 1.8896954959773664
1647.4245916000057 1.3960049292247894
1648.9787993000057 1.0710418677832316
1650.5330070000057 0.8465915269144896
1652.0872147000057 0.6854289247311974
1653.6414224000057 0.5659725436202031
1655.1956301000057 0.5701333303625045
1656.7498378000057 0.5099792839518031
1658.3040455000057 0.46633239638430246
1659.8582532000057 0.4358947711669221
1661.4124609000057 0.4166538857009674
1662.9666686000057 0.4075634181837268
1664.5208763000057 0.408401694242187
1666.0750840000057 0.41977187376589203
1667.6292917000058 0.39192856268722875
1669.1834994000058 0.4594829444239771
1670.7377071000058 0.5471441874819372
1672.2919148000058 0.6640610685268744
1673.8461225000058 0.8253245349081088
1675.4003302000058 1.057243788860692
1676.9545379000058 1.408827688687956
1678.5087456000058 1.9787956007708278
1680.0629533000058 2.9838032599530333
1681.6171610000058 4.929585310341115
1683.1713687000058 8.824342575758521
1684.7255764000058 13.935231671361807
1686.2797841000058 12.396903997932633
1687.8339918000058 7.570488552336614
1689.3881995000058 5.060944784094345
1690.9424072000058 4.296527322406194
1692.4966149000059 4.73465933026988
1694.0508226000059 6.641648846020495
1695.6050303000059 11.108510787108541
1697.1592380000059 17.138114935992416
1698.7134457000059 14.888493493487841
1700.2676534000059 8.481145745920381
1701.821861100006 4.802408465476527
1703.376068800006 2.9844490399204253
1704.930276500006 2.0172271028830675
1706.484484200006 1.4533135683743106
1708.038691900006 1.0982628585946765
1709.592899600006 0.8606727652194858
1711.147107300006 0.6938361686327443
1712.701315000006 0.5720772475156909
1714.255522700006 0.4803883761716359
1715.809730400006 0.3182137437829276
1717.363938100006 0.2708258840510424
1718.918145800006 0.23324394230904005
1720.472353500006 0.20294742806698773
1722.026561200006 0.17817396663548596
1723.580768900006 0.15766205852162954
1725.134976600006 0.14048992596029822
1726.689184300006 0.12597161593765352
1728.243392000006 0
1729.797599700006 0
1731.351807400006 0
1732.906015100006 0
1734.460222800006 0
1736.014430500006 0
1737.568638200006 0
1739.122845900006 0
1740.677053600006 0
1742.231261300006 0
1743.785469000006 0
1745.339676700006 0
1746.893884400006 0
1748.448092100006 0
1750.002299800006 0
1751.556507500006 0
1753.110715200006 0
1754.664922900006 0
1756.219130600006 0
1757.7733383000061 0
1759.3275460000061 0
1760.8817537000061 0
1762.4359614000061 0
1763.9901691000061 0
1765.5443768000061 0
1767.0985845000062 0
1768.6527922000062 0
1770.2069999000062 0
1771.7612076000062 0
1773.3154153000062 0
1774.8696230000062 0
1776.4238307000062 0
1777.9780384000062 0
1779.5322461000062 0
1781.0864538000062 0
1782.6406615000062 0
1784.1948692000062 0
1785.7490769000062 0
1787.3032846000062 0
1788.8574923000062 0
1790.4117000000062 0
1791.9659077000063 0
1793.5201154000063 0
1795.0743231000063 0
1796.6285308000063 0
1798.1827385000063 0
1799.7369462000063 0
1801.2911539000063 0
1802.8453616000063 0
1804.3995693000063 0
1805.9537770000063 0
1807.5079847000063 0
1809.0621924000063 0
1810.6164001000063 0
1812.1706078000063 0
1813.7248155000063 0
1815.2790232000063 0
1816.8332309000064 0
1818.3874386000064 0
1819.9416463000064 0
1821.4958540000064 0
1823.0500617000064 0
1824.6042694000064 0
1826.1584771000064 0
1827.7126848000064 0
1829.2668925000064 0
1830.8211002000064 0
1832.3753079000064 0
1833.9295156000064 0
1835.4837233000064 0
1837.0379310000064 0
1838.5921387000064 0
1840.1463464000065 0
1841.7005541000065 0
1843.2547618000065 0
1844.8089695000065 0
1846.3631772000065 0
1847.9173849000065 0
1849.4715926000065 0
1851.0258003000065 0
1852.5800080000065 0
1854.1342157000065 0
1855.6884234000065 0
1857.2426311000065 0
1858.7968388000065 0
1860.3510465000065 0
1861.9052542000065 0
1863.4594619000065 0
1865.0136696000066 0
1866.5678773000066 0
1868.1220850000066 0
1869.6762927000066 0
1871.2305004000066 0
1872.7847081000066 0
1874.3389158000066 0
1875.8931235000066 0
1877.4473312000066 0
1879.0015389000066 0
1880.5557466000066 0
1882.1099543000066 0
1883.6641620000066 0
1885.2183697000066 0
1886.7725774000066 0
1888.3267851000066 0
1889.8809928000067 0
1891.4352005000067 0
1892.9894082000067 0
1894.5436159000067 0
1896.0978236000067 0
1897.6520313000067 0
1899.2062390000067 0
1900.7604467000067 0
1902.3146544000067 0
1903.8688621000067 0
1905.4230698000067 0
1906.9772775000067 0
1908.5314852000067 0
1910.0856929000067 0
1911.6399006000067 0
1913.1941083000067 0
1914.7483160000068 0
1916.3025237000068 0
1917.8567314000068 0
1919.4109391000068 0
1920.9651468000068 0
1922.5193545000068 0
1924.0735622000068 0
1925.6277699000068 0
1927.1819776000068 0
1928.7361853000068 0
1930.2903930000068 0
1931.8446007000068 0
1933.3988084000068 0
1934.9530161000068 0
1936.5072238000068 0
1938.0614315000068 0
1939.6156392000069 0
1941.1698469000069 0
1942.7240546000069 0
1944.2782623000069 0
1945.8324700000069 0
1947.3866777000069 0
1948.940885400007 0
1950.495093100007 0
1952.049300800007 0
1953.603508500007 0
1955.157716200007 0
1956.711923900007 0
1958.266131600007 0
1959.820339300007 0
1961.374547000007 0
1962.928754700007 0
1964.482962400007 0
1966.037170100007 0
1967.591377800007 0
1969.145585500007 0
1970.699793200007 0
1972.254000900007 0
1973.808208600007 0
1975.362416300007 0
1976.916624000007 0
1978.470831700007 0
1980.025039400007 0
1981.579247100007 0
1983.133454800007 0
1984.687662500007 0
1986.241870200007 0
1987.796077900007 0
1989.350285600007 0
1990.904493300007 0
1992.458701000007 0
1994.012908700007 0
1995.567116400007 0
1997.121324100007 0
1998.675531800007 0
2000.229739500007 0
2001.783947200007 0
2003.338154900007 0
2004.8923626000071 0
2006.4465703000071 0
2008.0007780000071 0
2009.5549857000071 0
2011.1091934000071 0
2012.6634011000071 0
2014.2176088000072 0
2015.7718165000072 0
2017.3260242000072 0
2018.8802319000072 0
2020.4344396000072 0
2021.9886473000072 0
2023.5428550000072 0
2025.0970627000072 0
2026.6512704000072 0
2028.2054781000072 0
2029.7596858000072 0
2031.3138935000072 0
2032.8681012000072 0
2034.4223089000072 0
2035.9765166000072 0
2037.5307243000073 0
2039.0849320000073 0
2040.6391397000073 0
2042.1933474000073 0
2043.7475551000073 0
2045.3017628000073 0
2046.8559705000073 0
2048.410178200007 0
2049.964385900007 0
2051.518593600007 0
2053.072801300007 0
2054.627009000007 0
2056.181216700007 0
2057.735424400007 0
2059.289632100007 0
2060.843839800007 0
2062.398047500007 0
2063.952255200007 0
2065.506462900007 0
2067.060670600007 0
2068.614878300007 0
2070.169086000007 0
2071.723293700007 0
2073.277501400007 0
2074.831709100007 0
2076.385916800007 0
2077.940124500007 0
2079.494332200007 0
2081.048539900007 0
2082.602747600007 0
2084.156955300007 0
2085.711163000007 0
2087.265370700007 0
2088.8195784000072 0
2090.3737861000072 0
2091.9279938000072 0
2093.4822015000072 0
2095.0364092000073 0
2096.5906169000073 0
2098.1448246000073 0
2099.6990323000073 0
2101.2532400000073 0
2102.8074477000073 0
2104.3616554000073 0
2105.9158631000073 0
2107.4700708000073 0
2109.0242785000073 0
2110.5784862000073 0
2112.1326939000073 0
2113.6869016000073 0
2115.2411093000073 0
2116.7953170000073 0
2118.3495247000074 0
2119.9037324000074 0
2121.4579401000074 0
2123.0121478000074 0
2124.5663555000074 0
2126.1205632000074 0
2127.6747709000074 0
2129.2289786000074 0
2130.7831863000074 0
2132.3373940000074 0
2133.8916017000074 0
2135.4458094000074 0
2137.0000171000074 0
2138.5542248000074 0
2140.1084325000074 0
2141.6626402000074 0
2143.2168479000075 0
2144.7710556000075 0
2146.3252633000075 0
2147.8794710000075 0
2149.4336787000075 0
2150.9878864000075 0
2152.5420941000075 0
2154.0963018000075 0
2155.6505095000075 0
2157.2047172000075 0
2158.7589249000075 0
2160.3131326000075 0
2161.8673403000075 0
2163.4215480000075 0
2164.9757557000075 0
2166.5299634000075 0
2168.0841711000076 0
2169.6383788000076 0
2171.1925865000076 0
2172.7467942000076 0
2174.3010019000076 0
2175.8552096000076 0
2177.4094173000076 0
2178.9636250000076 0
2180.5178327000076 0
2182.0720404000076 0
2183.6262481000076 0
2185.1804558000076 0
2186.7346635000076 0
2188.2888712000076 0
2189.8430789000076 0
2191.3972866000076 0
2192.9514943000077 0
2194.5057020000077 0
2196.0599097000077 0
2197.6141174000077 0
2199.1683251000077 0
2200.7225328000077 0
2202.2767405000077 0
2203.8309482000077 0
2205.3851559000077 0
2206.9393636000077 0
2208.4935713000077 0
2210.0477790000077 0
2211.6019867000077 0
2213.1561944000077 0
2214.7104021000077 0
2216.2646098000077 0
2217.8188175000078 0
2219.3730252000078 0
2220.9272329000078 0
2222.4814406000078 0
2224.035648300008 0
2225.589856000008 0
2227.144063700008 0
2228.698271400008 0
2230.252479100008 0
2231.806686800008 0
2233.360894500008 0
2234.915102200008 0
2236.469309900008 0
2238.023517600008 0
2239.577725300008 0
2241.131933000008 0
2242.686140700008 0
2244.240348400008 0
2245.794556100008 0
2247.348763800008 0
2248.902971500008 0
2250.457179200008 0
2252.011386900008 0
2253.565594600008 0
2255.119802300008 0
2256.674010000008 0
2258.228217700008 0
2259.782425400008 0
2261.336633100008 0
2262.890840800008 0
2264.445048500008 0
2265.999256200008 0
2267.553463900008 0
2269.107671600008 0
2270.661879300008 0
2272.216087000008 0
2273.770294700008 0
2275.324502400008 0
2276.878710100008 0
2278.432917800008 0
2279.987125500008 0
2281.541333200008 0
2283.095540900008 0
2284.649748600008 0
2286.203956300008 0
2287.758164000008 0
2289.312371700008 0
2290.866579400008 0
2292.420787100008 0
2293.974994800008 0
2295.529202500008 0
2297.083410200008 0
2298.637617900008 0
2300.191825600008 0
2301.746033300008 0
2303.300241000008 0
2304.854448700008 0
2306.408656400008 0
2307.962864100008 0
2309.517071800008 0
2311.071279500008 0
2312.625487200008 0
2314.179694900008 0
2315.733902600008 0
2317.288110300008 0
2318.842318000008 0
2320.396525700008 0
2321.950733400008 0
2323.504941100008 0
2325.059148800008 0
2326.613356500008 0
2328.167564200008 0
2329.721771900008 0
2331.275979600008 0
2332.830187300008 0
2334.384395000008 0
2335.9386027000082 0
2337.4928104000082 0
2339.0470181000082 0
2340.6012258000083 0
2342.1554335000083 0
2343.7096412000083 0
2345.2638489000083 0
2346.8180566000083 0
2348.3722643000083 0
2349.9264720000083 0
2351.4806797000083 0
2353.0348874000083 0
2354.5890951000083 0
2356.1433028000083 0
2357.6975105000083 0
2359.2517182000083 0
2360.8059259000083 0
2362.3601336000083 0
2363.9143413000083 0
2365.4685490000084 0
2367.0227567000084 0
2368.5769644000084 0
2370.1311721000084 0
2371.6853798000084 0
2373.2395875000084 0
2374.7937952000084 0
2376.3480029000084 0
2377.9022106000084 0
2379.4564183000084 0
2381.0106260000084 0
2382.5648337000084 0
2384.1190414000084 0
2385.6732491000084 0
2387.2274568000084 0
2388.7816645000084 0
2390.3358722000085 0
2391.8900799000085 0
2393.4442876000085 0
2394.9984953000085 0
2396.5527030000085 0
2398.1069107000085 0
2399.6611184000085 0
2401.2153261000085 0
2402.7695338000085 0
2404.3237415000085 0
2405.8779492000085 0
2407.4321569000085 0
2408.9863646000085 0
2410.5405723000085 0
2412.0947800000085 0
2413.6489877000085 0
2415.2031954000086 0
2416.7574031000086 0
2418.3116108000086 0
2419.8658185000086 0
2421.4200262000086 0
2422.9742339000086 0
2424.5284416000086 0
2426.0826493000086 0
2427.6368570000086 0
2429.1910647000086 0
2430.7452724000086 0
2432.2994801000086 0
2433.8536878000086 0
2435.4078955000086 0
2436.9621032000086 0
2438.5163109000086 0
2440.0705186000087 0
2441.6247263000087 0
2443.1789340000087 0
2444.7331417000087 0
2446.2873494000087 0
2447.8415571000087 0
2449.3957648000087 0
2450.9499725000087 0
2452.5041802000087 0
2454.0583879000087 0
2455.6125956000087 0
2457.1668033000087 0
2458.7210110000087 0
2460.2752187000087 0
2461.8294264000087 0
2463.3836341000087 0
2464.9378418000088 0
2466.4920495000088 0
2468.0462572000088 0
2469.600464900009 0
2471.154672600009 0
2472.708880300009 0
2474.263088000009 0
2475.817295700009 0
2477.371503400009 0
2478.925711100009 0
2480.479918800009 0
2482.034126500009 0
2483.588334200009 0
2485.142541900009 0
2486.696749600009 0
2488.250957300009 0
2489.805165000009 0
2491.359372700009 0
2492.913580400009 0
2494.467788100009 0
2496.021995800009 0
2497.576203500009 0
2499.130411200009 0
2500.684618900009 0
2502.238826600009 0
2503.793034300009 0
2505.347242000009 0
2506.901449700009 0
2508.455657400009 0
2510.009865100009 0
2511.564072800009 0
2513.118280500009 0
2514.672488200009 0
2516.226695900009 0
2517.780903600009 0
2519.335111300009 0
2520.889319000009 0
2522.443526700009 0
2523.997734400009 0
2525.551942100009 0
2527.106149800009 0
2528.660357500009 0
2530.214565200009 0
2531.768772900009 0
2533.322980600009 0
2534.877188300009 0
2536.431396000009 0
2537.985603700009 0
2539.539811400009 0
2541.094019100009 0
2542.648226800009 0
2544.202434500009 0
2545.756642200009 0
2547.310849900009 0
2548.865057600009 0
2550.419265300009 0
2551.973473000009 0
2553.527680700009 0
2555.081888400009 0
2556.636096100009 0
2558.190303800009 0
2559.744511500009 0
2561.298719200009 0
2562.852926900009 0
2564.407134600009 0
2565.961342300009 0
2567.515550000009 0
2569.069757700009 0
2570.623965400009 0
2572.178173100009 0
2573.732380800009 0
2575.286588500009 0
2576.840796200009 0
2578.395003900009 0
2579.949211600009 0
2581.503419300009 0
2583.0576270000092 0
2584.6118347000092 0
2586.1660424000092 0
2587.7202501000093 0
2589.2744578000093 0
2590.8286655000093 0
2592.3828732000093 0
2593.9370809000093 0
2595.4912886000093 0
2597.0454963000093 0
2598.5997040000093 0
2600.1539117000093 0
2601.7081194000093 0
2603.2623271000093 0
2604.8165348000093 0
2606.3707425000093 0
2607.9249502000093 0
2609.4791579000093 0
2611.0333656000093 0
2612.5875733000094 0
2614.1417810000094 0
2615.6959887000094 0
2617.2501964000094 0
2618.8044041000094 0
2620.3586118000094 0
2621.9128195000094 0
2623.4670272000094 0
2625.0212349000094 0
2626.5754426000094 0
2628.1296503000094 0
2629.6838580000094 0
2631.2380657000094 0
2632.7922734000094 0
2634.3464811000094 0
2635.9006888000094 0
2637.4548965000095 0
2639.0091042000095 0
2640.5633119000095 0
2642.1175196000095 0
2643.6717273000095 0
2645.2259350000095 0
2646.7801427000095 0
2648.3343504000095 0
2649.8885581000095 0
2651.4427658000095 0
2652.9969735000095 0
2654.5511812000095 0
2656.1053889000095 0
2657.6595966000095 0
2659.2138043000095 0
2660.7680120000095 0
2662.3222197000096 0
2663.8764274000096 0
2665.4306351000096 0
2666.9848428000096 0
2668.5390505000096 0
2670.0932582000096 0
2671.6474659000096 0
2673.2016736000096 0
2674.7558813000096 0
2676.3100890000096 0
2677.8642967000096 0
2679.4185044000096 0
2680.9727121000096 0
2682.5269198000096 0
2684.0811275000096 0
2685.6353352000096 0
2687.1895429000097 0
2688.7437506000097 0
2690.2979583000097 0
2691.8521660000097 0
2693.4063737000097 0
2694.9605814000097 0
2696.5147891000097 0
2698.0689968000097 0
2699.6232045000097 0
2701.1774122000097 0
2702.7316199000097 0
2704.2858276000097 0
2705.8400353000097 0
2707.3942430000097 0
2708.9484507000097 0
2710.5026584000098 0
2712.0568661000098 0
2713.6110738000098 0
2715.1652815000098 0
2716.71948920001 0
2718.27369690001 0
2719.82790460001 0
2721.38211230001 0
2722.93632000001 0
2724.49052770001 0
2726.04473540001 0
2727.59894310001 0
2729.15315080001 0
2730.70735850001 0
2732.26156620001 0
2733.81577390001 0
2735.36998160001 0
2736.92418930001 0
2738.47839700001 0
2740.03260470001 0
2741.58681240001 0
2743.14102010001 0
2744.69522780001 0
2746.24943550001 0
2747.80364320001 0
2749.35785090001 0
2750.91205860001 0
2752.46626630001 0
2754.02047400001 0
2755.57468170001 0
2757.12888940001 0
2758.68309710001 0
2760.23730480001 0
2761.79151250001 0
2763.34572020001 0
2764.89992790001 0
2766.45413560001 0
2768.00834330001 0
2769.56255100001 0
2771.11675870001 0
2772.67096640001 0
2774.22517410001 0
2775.77938180001 0
2777.33358950001 0
2778.88779720001 0
2780.44200490001 0
2781.99621260001 0
2783.55042030001 0
2785.10462800001 0
2786.65883570001 0.21936275862068966
2788.21304340001 0.24379973795328833
2789.76725110001 0.27254661959442245
2791.32145880001 0.30667615157440903
2792.87566650001 0.3476154503909162
2794.42987420001 0.3972956541182477
2795.98408190001 0.4583804197939339
2797.53828960001 0.5346242348683266
2799.09249730001 0.6314514856816573
2800.64670500001 0.7569249329969425
2802.20091270001 0.9234303244609465
2803.75512040001 1.150742383897642
2805.30932810001 1.471905471780713
2806.86353580001 1.9452209854145324
2808.41774350001 2.6804542572385968
2809.97195120001 3.9007111856312355
2811.52615890001 6.0991359270975405
2813.08036660001 10.432584528500325
2814.63457430001 19.21187933968995
2816.18878200001 30.721530104006476
2817.74298970001 26.772668208936313
2819.29719740001 15.047930919553462
2820.85140510001 8.343147505842367
2822.40561280001 5.061622845751044
2823.95982050001 3.338083666923174
2825.51402820001 2.3480638812523313
2827.06823590001 1.7346227259051508
2828.6224436000102 1.3308359629391648
2830.1766513000102 1.051942490604308
2831.7308590000102 0.851687959649042
2833.2850667000102 0.7032559956268349
2834.8392744000103 0.5902918023625311
2836.3934821000103 0.5023865321542175
2837.9476898000103 0.4326714033749168
2839.5018975000103 0.3764708641252898
2841.0561052000103 0.3305156799609772
2842.6103129000103 0.29246574828146266
2844.1645206000103 0.26061115595765866
2845.7187283000103 0.2336794487075436
2847.2729360000103 0
2848.8271437000103 0
2850.3813514000103 0
2851.9355591000103 0
2853.4897668000103 0
2855.0439745000103 0
2856.5981822000103 0
2858.1523899000103 0
2859.7065976000104 0
2861.2608053000104 0
2862.8150130000104 0
2864.3692207000104 0
2865.9234284000104 0
2867.4776361000104 0
2869.0318438000104 0
2870.5860515000104 0
2872.1402592000104 0
2873.6944669000104 0
2875.2486746000104 0
2876.8028823000104 0
2878.3570900000104 0
2879.9112977000104 0
2881.4655054000104 0
2883.0197131000104 0
2884.5739208000105 0
2886.1281285000105 0
2887.6823362000105 0
2889.2365439000105 0
2890.7907516000105 0
2892.3449593000105 0
2893.8991670000105 0
2895.4533747000105 0
2897.0075824000105 0
2898.5617901000105 0
2900.1159978000105 0
2901.6702055000105 0
2903.2244132000105 0
2904.7786209000105 0
2906.3328286000105 0
2907.8870363000105 0
2909.4412440000106 0
2910.9954517000106 0
2912.5496594000106 0
2914.1038671000106 0
2915.6580748000106 0
2917.2122825000106 0
2918.7664902000106 0
2920.3206979000106 0
2921.8749056000106 0
2923.4291133000106 0
2924.9833210000106 0
2926.5375287000106 0
2928.0917364000106 0
2929.6459441000106 0
2931.2001518000106 0
2932.7543595000107 0
2934.3085672000107 0
2935.8627749000107 0
2937.4169826000107 0
2938.9711903000107 0
2940.5253980000107 0
2942.0796057000107 0
2943.6338134000107 0
2945.1880211000107 0
2946.7422288000107 0
2948.2964365000107 0
2949.8506442000107 0
2951.4048519000107 0
2952.9590596000107 0
2954.5132673000107 0
2956.0674750000107 0
2957.6216827000108 0
2959.1758904000108 0
2960.7300981000108 0
2962.2843058000108 0
2963.838513500011 0
2965.392721200011 0
2966.946928900011 0
2968.501136600011 0
2970.055344300011 0
2971.609552000011 0
2973.163759700011 0
2974.717967400011 0
2976.272175100011 0
2977.826382800011 0
2979.380590500011 0
2980.934798200011 0
2982.489005900011 0
2984.043213600011 0
2985.597421300011 0
2987.151629000011 0
2988.705836700011 0
2990.260044400011 0
2991.814252100011 0
2993.368459800011 0
2994.922667500011 0
2996.476875200011 0
2998.031082900011 0
2999.585290600011 0
3001.139498300011 0
3002.693706000011 0
3004.247913700011 0
3005.802121400011 0
3007.356329100011 0
3008.910536800011 0
3010.464744500011 0
3012.018952200011 0
3013.573159900011 0
3015.127367600011 0
3016.681575300011 0
3018.235783000011 0
3019.789990700011 0
3021.344198400011 0
3022.898406100011 0
3024.452613800011 0
3026.006821500011 0
3027.561029200011 0
3029.115236900011 0
3030.669444600011 0
3032.223652300011 0
3033.777860000011 0
3035.332067700011 0
3036.886275400011 0
3038.440483100011 0
3039.994690800011 0
3041.548898500011 0
3043.103106200011 0
3044.657313900011 0
3046.211521600011 0
3047.765729300011 0
3049.319937000011 0
3050.874144700011 0
3052.428352400011 0
3053.982560100011 0
3055.536767800011 0
3057.090975500011 0
3058.645183200011 0
3060.199390900011 0
3061.753598600011 0
3063.307806300011 0
3064.862014000011 0
3066.416221700011 0
3067.970429400011 0
3069.524637100011 0
3071.078844800011 0
3072.633052500011 0
3074.187260200011 0
3075.7414679000112 0
3077.2956756000112 0
3078.8498833000112 0
3080.4040910000112 0
3081.9582987000113 0
3083.5125064000113 0
3085.0667141000113 0
3086.6209218000113 0
3088.1751295000113 0
3089.7293372000113 0
3091.2835449000113 0
3092.8377526000113 0
3094.3919603000113 0
3095.9461680000113 0
3097.5003757000113 0
3099.0545834000113 0
3100.6087911000113 0
3102.1629988000113 0
3103.7172065000113 0
3105.2714142000113 0
3106.8256219000114 0
3108.3798296000114 0
3109.9340373000114 0
3111.4882450000114 0
3113.0424527000114 0
3114.5966604000114 0
3116.1508681000114 0
3117.7050758000114 0
3119.2592835000114 0
3120.8134912000114 0
3122.3676989000114 0
3123.9219066000114 0
3125.4761143000114 0
3127.0303220000114 0
3128.5845297000114 0
3130.1387374000115 0
3131.6929451000115 0
3133.2471528000115 0
3134.8013605000115 0
3136.3555682000115 0
3137.9097759000115 0
3139.4639836000115 0
3141.0181913000115 0
3142.5723990000115 0
3144.1266067000115 0
3145.6808144000115 0
3147.2350221000115 0
3148.7892298000115 1.1313462068965516
3150.3434375000115 1.257378009422112
3151.8976452000115 1.4056377947626022
3153.4518529000115 1.5816581766701745
3155.0060606000116 1.7927993964482678
3156.5602683000116 2.049021147114487
3158.1144760000116 2.364061030734159
3159.6686837000116 2.757282521593003
3161.2228914000116 3.256661466408802
3162.7770991000116 3.9037809208638823
3164.3313068000116 4.762519406124978
3165.8855145000116 5.934863507934124
3167.4397222000116 7.5912369213446285
3168.9939299000116 10.03232452610458
3170.5481376000116 13.824232407335261
3172.1023453000116 20.11761172138461
3173.6565530000116 31.455814742008243
3175.2107607000116 53.80523571394074
3176.7649684000116 99.08375949946885
3178.3191761000116 158.4438797714308
3179.8733838000117 138.07793454610217
3181.4275915000117 77.60852240610204
3182.9817992000117 43.02912829718093
3184.5360069000117 26.10492247311332
3186.0902146000117 17.21590446173699
3187.6444223000117 14.45527927484218
3189.1986300000117 11.552773440338356
3190.7528377000117 9.777623138063301
3192.3070454000117 8.70414896055956
3193.8612531000117 8.109055795582146
3195.4154608000117 7.874687123237967
3196.9696685000117 7.945172942852795
3198.5238762000117 8.306971665409732
3200.0780839000117 8.982653093589313
3201.6322916000117 10.034306707005314
3203.1864993000117 11.577494313384772
3204.7407070000118 13.811569126461006
3206.2949147000118 17.081007268725585
3207.8491224000118 22.002577461078786
3209.4033301000118 28.658164720621617
3210.957537800012 41.70458174524282
3212.511745500012 65.2091120675535
3214.065953200012 111.54032010513721
3215.620160900012 205.40443890161598
3217.174368600012 328.46024803913815
3218.728576300012 286.2408614026016
3220.282784000012 160.88544761863153
3221.836991700012 89.2010355577543
3223.391199400012 54.11650688515478
3224.945407100012 35.68923115160835
3226.499614800012 25.104402099663062
3228.053822500012 18.54577584112025
3229.608030200012 14.228676404024435
3231.162237900012 11.246877685357846
3232.716445600012 9.105849791048962
3234.270653300012 7.518884573020567
3235.824861000012 6.311124190854723
3237.379068700012 5.371282107507295
3238.933276400012 4.6259205186343735
3240.487484100012 4.025050607553401
3242.041691800012 3.533719246836901
3243.595899500012 3.1269071526796606
3245.150107200012 2.7863327327064256
3246.704314900012 2.498391500172027
3248.258522600012 0
3249.812730300012 0
3251.366938000012 0
3252.921145700012 0
3254.475353400012 0
3256.029561100012 0
3257.583768800012 0
3259.137976500012 0
3260.692184200012 0
3262.246391900012 0
3263.800599600012 0
3265.354807300012 0.9002731034482759
3266.909015000012 1.0005633959345275
3268.463222700012 1.118541691394763
3270.017430400012 1.2586105885405603
3271.571638100012 1.4266270277496587
3273.125845800012 1.6305164731175696
3274.680053500012 1.8812106744215915
3276.234261200012 2.194118190936047
3277.788468900012 2.591500910483321
3279.342676600012 3.1064487098507176
3280.896884300012 3.7897931683937855
3282.451092000012 4.722690504692106
3284.005299700012 6.040756030762005
3285.559507400012 7.983260898263903
3287.113715100012 11.000686205756598
3288.667922800012 16.00866704460026
3290.222130500012 25.03108578669696
3291.776338200012 42.81572364204219
3293.330545900012 78.84628341186982
3294.884753600012 126.08232784507362
3296.438961300012 109.87604845782967
3297.993169000012 61.75728074630406
3299.547376700012 34.24059464259046
3301.101584400012 20.77309264563196
3302.655792100012 13.699622311858938
3304.209999800012 9.63654346235261
3305.764207500012 7.1189576324704795
3307.318415200012 5.4618014017937035
3308.872622900012 4.3172119853899735
3310.426830600012 3.4953597749406455
3311.981038300012 2.886189349926709
3313.535246000012 2.422580004894549
3315.089453700012 2.061813433041119
3316.643661400012 1.775699893358829
3318.197869100012 1.545050743047878
3319.752076800012 1.3564489196240515
3321.306284500012 1.2002905530238945
3322.8604922000122 1.0695580947399483
3324.4146999000122 0.9590293440090815
3325.9689076000122 0
3327.5231153000123 0
3329.0773230000123 0
3330.6315307000123 0
3332.1857384000123 0
3333.7399461000123 0
3335.2941538000123 0
3336.8483615000123 0
3338.4025692000123 0
3339.9567769000123 0
3341.5109846000123 0
3343.0651923000123 0
##END=
