##TITLE=No title given
##JCAMP-DX=5.00 $$ WebMO output
##DATA TYPE=IR SPECTRUM
##DATA CLASS=XYDATA
##DATE=Sun Jun 07 14:30:31 GMT+1000 2020
##ORIGIN=WebMO
##OWNER=public domain
##SPECTROMETER/DATA SYSTEM=computed
##XUNITS=1/CM
##YUNITS=ARBITRARY UNITS
##XFACTOR=1.0
##YFACTOR=1.0
##FIRSTX=309.7859
##LASTX=3916.5633091501054
##FIRSTY=0
##NPOINTS=2000
##XYDATA=(X++(Y..Y))
309.7859 0
311.59019085 0
313.3944817 0
315.19877254999994 0
317.0030633999999 0
318.8073542499999 0
320.61164509999986 0
322.41593594999983 0
324.2202267999998 0
326.0245176499998 0
327.82880849999975 0
329.6330993499997 4.770154482758621
331.4373901999997 5.395273900119388
333.24168104999967 6.15141897805446
335.04597189999964 7.0777937922375616
336.8502627499996 8.229372926784492
338.6545535999996 9.685131595149755
340.45884444999956 11.561724491168322
342.26313529999953 14.037125518976021
344.0674261499995 17.393374633711957
345.8717169999995 22.098086976563756
347.67600784999945 28.969933549172808
349.4802986999994 39.54063628408009
351.2845895499994 56.9201870245735
353.08888039999937 88.08545694278796
354.89317124999934 150.53678256186697
356.6974620999993 290.75614522597266
358.5017529499993 574.1014955026995
360.30604379999926 644.9420425787364
362.11033464999923 348.999680195904
363.9146254999992 175.86227239470082
365.7189163499992 99.86683453918735
367.52320719999915 63.10529315264763
369.3274980499991 43.12973738514449
371.1317888999991 31.21944701406322
372.93607974999907 23.594418243018406
374.74037059999904 18.4363657962138
376.544661449999 14.791920287890793
378.348952299999 12.124966444333028
380.15324314999896 10.116279957706004
381.95753399999893 8.566571990928693
383.7618248499989 7.346395336270972
385.5661156999989 6.368790584244457
387.37040654999885 5.573629108514412
389.1746973999988 4.918280806451802
390.9789882499988 0
392.78327909999877 0
394.58756994999874 0
396.3918607999987 0
398.1961516499987 0
400.00044249999866 0
401.8047333499986 0
403.6090241999986 0
405.4133150499986 0
407.21760589999855 0
409.0218967499985 0
410.8261875999985 0
412.63047844999846 0
414.43476929999844 0
416.2390601499984 0
418.0433509999984 0
419.84764184999835 0
421.6519326999983 0
423.4562235499983 0
425.26051439999827 0
427.06480524999824 0
428.8690960999982 0
430.6733869499982 0
432.47767779999816 0
434.28196864999813 0
436.0862594999981 0
437.8905503499981 0
439.69484119999805 0
441.499132049998 0
443.303422899998 0
445.10771374999797 0
446.91200459999794 0
448.7162954499979 0
450.5205862999979 0
452.32487714999786 0
454.12916799999783 0
455.9334588499978 0
457.7377496999978 0
459.54204054999775 0
461.3463313999977 0
463.1506222499977 0
464.95491309999767 0
466.75920394999764 0
468.5634947999976 0
470.3677856499976 0
472.17207649999756 0
473.97636734999753 0
475.7806581999975 0
477.5849490499975 0
479.38923989999745 0
481.1935307499974 0
482.9978215999974 0
484.80211244999737 0
486.60640329999734 0
488.4106941499973 0
490.2149849999973 0
492.01927584999726 0
493.82356669999723 0
495.6278575499972 0
497.4321483999972 0
499.23643924999715 0
501.0407300999971 0
502.8450209499971 0
504.64931179999707 0
506.45360264999704 0
508.257893499997 0
510.062184349997 0
511.86647519999696 0
513.6707660499969 0
515.475056899997 0
517.279347749997 0
519.083638599997 0
520.887929449997 0
522.6922202999971 0
524.4965111499971 0
526.3008019999971 0
528.1050928499972 0
529.9093836999972 0
531.7136745499972 0
533.5179653999973 0
535.3222562499973 0
537.1265470999973 0
538.9308379499973 0
540.7351287999974 0
542.5394196499974 0
544.3437104999974 0
546.1480013499975 0
547.9522921999975 0
549.7565830499975 0
551.5608738999975 0
553.3651647499976 0
555.1694555999976 0
556.9737464499976 0
558.7780372999977 0
560.5823281499977 0
562.3866189999977 0
564.1909098499978 0
565.9952006999978 0
567.7994915499978 0
569.6037823999978 0
571.4080732499979 0
573.2123640999979 0
575.0166549499979 0
576.820945799998 0
578.625236649998 0
580.429527499998 0
582.233818349998 0
584.0381091999981 0
585.8424000499981 0
587.6466908999981 0
589.4509817499982 0
591.2552725999982 0
593.0595634499982 0
594.8638542999983 0
596.6681451499983 0
598.4724359999983 0
600.2767268499983 0
602.0810176999984 0
603.8853085499984 0
605.6895993999984 0
607.4938902499985 0
609.2981810999985 0
611.1024719499985 0
612.9067627999985 0
614.7110536499986 0
616.5153444999986 0
618.3196353499986 0
620.1239261999987 0
621.9282170499987 0
623.7325078999987 0
625.5367987499988 0
627.3410895999988 0
629.1453804499988 0
630.9496712999988 0
632.7539621499989 0
634.5582529999989 0
636.3625438499989 0
638.166834699999 0
639.971125549999 0
641.775416399999 0
643.579707249999 0
645.3839980999991 0
647.1882889499991 0
648.9925797999991 0
650.7968706499992 0
652.6011614999992 0
654.4054523499992 0
656.2097431999993 0
658.0140340499993 0
659.8183248999993 0
661.6226157499993 0
663.4269065999994 0
665.2311974499994 0
667.0354882999994 0
668.8397791499995 0
670.6440699999995 0
672.4483608499995 0
674.2526516999995 0
676.0569425499996 0
677.8612333999996 0
679.6655242499996 0
681.4698150999997 0
683.2741059499997 0
685.0783967999997 0
686.8826876499998 0
688.6869784999998 0
690.4912693499998 0
692.2955601999998 0
694.0998510499999 0
695.9041418999999 0
697.7084327499999 0
699.5127236 0
701.31701445 0
703.1213053 0
704.92559615 0
706.7298870000001 0
708.5341778500001 0
710.3384687000001 0
712.1427595500002 0
713.9470504000002 0
715.7513412500002 0
717.5556321000003 0
719.3599229500003 0
721.1642138000003 0
722.9685046500003 0
724.7727955000004 0
726.5770863500004 0
728.3813772000004 0
730.1856680500005 0
731.9899589000005 0
733.7942497500005 0
735.5985406000005 0
737.4028314500006 0
739.2071223000006 0
741.0114131500006 0
742.8157040000007 0
744.6199948500007 0
746.4242857000007 0
748.2285765500008 0
750.0328674000008 0
751.8371582500008 0
753.6414491000008 0
755.4457399500009 0
757.2500308000009 0
759.0543216500009 0
760.858612500001 0
762.662903350001 0
764.467194200001 0
766.271485050001 0
768.0757759000011 0
769.8800667500011 0
771.6843576000011 0
773.4886484500012 0
775.2929393000012 0
777.0972301500012 0
778.9015210000013 0
780.7058118500013 0
782.5101027000013 0
784.3143935500013 0
786.1186844000014 0
787.9229752500014 0
789.7272661000014 0
791.5315569500015 0
793.3358478000015 0
795.1401386500015 0
796.9444295000015 0
798.7487203500016 0
800.5530112000016 0
802.3573020500016 0
804.1615929000017 0
805.9658837500017 0
807.7701746000017 0
809.5744654500018 0
811.3787563000018 0
813.1830471500018 0
814.9873380000018 0
816.7916288500019 0
818.5959197000019 0
820.4002105500019 0
822.204501400002 0
824.008792250002 0
825.813083100002 0
827.617373950002 0
829.4216648000021 0
831.2259556500021 0
833.0302465000021 0
834.8345373500022 0
836.6388282000022 0
838.4431190500022 0
840.2474099000023 0
842.0517007500023 0
843.8559916000023 0
845.6602824500023 0
847.4645733000024 0
849.2688641500024 0
851.0731550000024 0
852.8774458500025 0
854.6817367000025 0
856.4860275500025 0
858.2903184000025 0
860.0946092500026 0
861.8989001000026 0
863.7031909500026 0
865.5074818000027 0
867.3117726500027 0
869.1160635000027 0
870.9203543500028 0
872.7246452000028 0
874.5289360500028 0
876.3332269000028 0
878.1375177500029 0
879.9418086000029 0
881.7460994500029 0
883.550390300003 0
885.354681150003 0
887.158972000003 0
888.963262850003 0
890.7675537000031 0
892.5718445500031 0
894.3761354000031 0
896.1804262500032 0
897.9847171000032 0
899.7890079500032 0
901.5932988000033 0
903.3975896500033 0
905.2018805000033 0
907.0061713500033 0
908.8104622000034 0
910.6147530500034 0
912.4190439000034 0
914.2233347500035 0
916.0276256000035 0
917.8319164500035 0
919.6362073000035 0
921.4404981500036 0
923.2447890000036 0
925.0490798500036 0
926.8533707000037 0
928.6576615500037 0
930.4619524000037 0
932.2662432500038 0
934.0705341000038 0
935.8748249500038 0
937.6791158000038 0
939.4834066500039 0
941.2876975000039 0
943.0919883500039 0
944.896279200004 0
946.700570050004 0
948.504860900004 0
950.309151750004 0
952.1134426000041 0
953.9177334500041 0
955.7220243000041 0
957.5263151500042 0
959.3306060000042 0
961.1348968500042 0
962.9391877000043 0
964.7434785500043 0
966.5477694000043 0
968.3520602500043 0
970.1563511000044 0
971.9606419500044 0
973.7649328000044 0
975.5692236500045 0
977.3735145000045 0
979.1778053500045 0
980.9820962000045 0
982.7863870500046 0
984.5906779000046 0
986.3949687500046 0
988.1992596000047 0
990.0035504500047 0
991.8078413000047 0
993.6121321500048 0
995.4164230000048 0
997.2207138500048 0
999.0250047000048 0
1000.8292955500049 0
1002.6335864000049 0
1004.4378772500049 0
1006.242168100005 0
1008.046458950005 0
1009.850749800005 0
1011.655040650005 0
1013.4593315000051 0
1015.2636223500051 0
1017.0679132000051 0
1018.8722040500052 0
1020.6764949000052 0
1022.4807857500052 0
1024.2850766000051 0
1026.089367450005 0
1027.893658300005 0
1029.697949150005 0
1031.5022400000048 0
1033.3065308500047 0
1035.1108217000046 0
1036.9151125500046 0
1038.7194034000045 0
1040.5236942500044 0
1042.3279851000043 0
1044.1322759500042 0
1045.9365668000041 0
1047.740857650004 0
1049.545148500004 0
1051.3494393500039 0
1053.1537302000038 0
1054.9580210500037 0
1056.7623119000036 0
1058.5666027500035 0
1060.3708936000035 2.734057931034483
1062.1751844500034 3.0923508766940557
1063.9794753000033 3.5257423852527943
1065.7837661500032 4.056702633391982
1067.5880570000031 4.716740809807789
1069.392347850003 5.5511222847268655
1071.196638700003 6.626708769237321
1073.0009295500029 8.045507643997034
1074.8052204000028 9.969172704287407
1076.6095112500027 12.665721870713853
1078.4138021000026 16.60438396029586
1080.2180929500025 22.663079491737474
1082.0223838000024 32.62432890443409
1083.8266746500024 50.48699010349535
1085.6309655000023 86.2815419842671
1087.4352563500022 166.64955982559576
1089.239547200002 329.0515543408053
1091.043838050002 369.65446568736263
1092.848128900002 200.03237778091543
1094.6524197500019 100.79707949680454
1096.4567106000018 57.2395950710088
1098.2610014500017 36.16937938968427
1100.0652923000016 24.720205810425576
1101.8695831500015 17.89371330002858
1103.6738740000014 13.523357903531906
1105.4781648500013 10.566972685431805
1107.2824557000013 8.478125210518687
1109.0867465500012 6.94953607697206
1110.891037400001 5.798238935637232
1112.695328250001 4.91000955592428
1114.499619100001 4.210654079704689
1116.3039099500008 3.6503309213339703
1118.1082008000008 3.1945768053968417
1119.9124916500007 2.8189578963403896
1121.7167825000006 0.528775172413793
1123.5210733500005 0.598070124786694
1125.3253642000004 0.6818893690900183
1127.1296550500003 0.784578706271853
1128.9339459000003 0.9122321098710587
1130.7382367500002 1.0736040410401517
1132.5425276 1.281625759357498
1134.34681845 1.5560258044720143
1136.1511093 1.928068515189764
1137.9554001499998 2.4495893777195166
1139.7596909999997 3.211338681513668
1141.5639818499997 4.3831089420759755
1143.3682726999996 6.309645068420042
1145.1725635499995 9.76433841931366
1146.9768543999994 16.687114314946584
1148.7811452499993 32.230534960215785
1150.5854360999992 63.63957778822626
1152.3897269499992 71.49230512222766
1154.194017799999 38.68687413270122
1155.998308649999 19.4944636998101
1157.802599499999 11.070312888767624
1159.6068903499988 6.995268683148828
1161.4111811999987 4.780963468673251
1163.2154720499987 3.4606989222666398
1165.0197628999986 2.6154588115650745
1166.8240537499985 2.04368486132146
1168.6283445999984 1.639695366016443
1170.4326354499983 1.344061548800602
1172.2369262999982 1.121397157714167
1174.0412171499981 0.9496108769373722
1175.845507999998 0.8143533872116065
1177.649798849998 0.7059851733154171
1179.454089699998 0.6178409322964395
1181.2583805499978 0.5451950855703405
1183.0626713999977 0
1184.8669622499976 0
1186.6712530999976 0
1188.4755439499975 0
1190.2798347999974 0
1192.0841256499973 0
1193.8884164999972 0
1195.6927073499971 0
1197.496998199997 0
1199.301289049997 0
1201.1055798999969 0
1202.9098707499968 0
1204.7141615999967 0
1206.5184524499966 0
1208.3227432999965 0
1210.1270341499965 0
1211.9313249999964 0
1213.7356158499963 0
1215.5399066999962 0
1217.3441975499961 0
1219.148488399996 0
1220.952779249996 0
1222.7570700999959 0
1224.5613609499958 0.025310344827586206
1226.3656517999957 0.028627216025155947
1228.1699426499956 0.032639306772194
1229.9742334999955 0.03755463311462404
1231.7785243499955 0.04366488910255562
1233.5828151999954 0.05138911564809967
1235.3871060499953 0.061346280236982506
1237.1913968999952 0.0744807088654104
1238.995687749995 0.09228889992678506
1240.799978599995 0.11725201006138618
1242.604269449995 0.15371389132406396
1244.4085602999949 0.20980182982949314
1246.2128511499948 0.3020173804537429
1248.0171419999947 0.4673796828960765
1249.8214328499946 0.7987451747415493
1251.6257236999945 1.542746324674745
1253.4300145499944 3.0461711187179534
1255.2343053999944 3.4220496527899944
1257.0385962499943 1.8517853630121592
1258.8428870999942 0.9331217201796613
1260.647177949994 0.5298914381417196
1262.451468799994 0.33483543057418574
1264.255759649994 0.22884552889998006
1266.0600504999938 0.16564976503563952
1267.8643413499938 0.12519151400561118
1269.6686321999937 0.09782299029441832
1271.4729230499936 0.07848563489965549
1273.2772138999935 0.06433483084001818
1275.0815047499934 0.05367678028613938
1276.8857955999933 0.045454060631467855
1278.6900864499933 0.03897982756593763
1280.4943772999932 0.033792676192053214
1282.298668149993 0.02957356521418311
1284.102958999993 0.026096300155507714
1285.907249849993 0
1287.7115406999928 0
1289.5158315499928 0
1291.3201223999927 0
1293.1244132499926 0
1294.9287040999925 0
1296.7329949499924 0
1298.5372857999923 0
1300.3415766499922 0
1302.1458674999922 0
1303.950158349992 0
1305.754449199992 0
1307.558740049992 0
1309.3630308999918 0
1311.1673217499917 0
1312.9716125999917 0
1314.7759034499916 0
1316.5801942999915 0
1318.3844851499914 0
1320.1887759999913 0
1321.9930668499912 0
1323.7973576999912 0
1325.601648549991 0
1327.405939399991 0
1329.210230249991 0
1331.0145210999908 0
1332.8188119499907 0
1334.6231027999906 0
1336.4273936499906 0
1338.2316844999905 0
1340.0359753499904 0
1341.8402661999903 0
1343.6445570499902 0
1345.4488478999901 0
1347.25313874999 0
1349.05742959999 0
1350.86172044999 0
1352.6660112999898 0
1354.4703021499897 0
1356.2745929999896 0
1358.0788838499896 0
1359.8831746999895 0
1361.6874655499894 0
1363.4917563999893 0
1365.2960472499892 0
1367.1003380999891 0
1368.904628949989 0
1370.708919799989 0
1372.5132106499889 0
1374.3175014999888 0
1376.1217923499887 0
1377.9260831999886 0
1379.7303740499885 0
1381.5346648999885 0
1383.3389557499884 0
1385.1432465999883 0
1386.9475374499882 0
1388.7518282999881 0
1390.556119149988 0
1392.360409999988 0
1394.1647008499879 0
1395.9689916999878 0
1397.7732825499877 0
1399.5775733999876 0
1401.3818642499875 0
1403.1861550999874 0
1404.9904459499874 0
1406.7947367999873 0
1408.5990276499872 0
1410.403318499987 0
1412.207609349987 0
1414.011900199987 0
1415.8161910499869 0
1417.6204818999868 0
1419.4247727499867 0
1421.2290635999866 0
1423.0333544499865 0
1424.8376452999864 0
1426.6419361499863 0
1428.4462269999863 0
1430.2505178499862 0
1432.054808699986 0
1433.859099549986 0
1435.663390399986 0
1437.4676812499858 0
1439.2719720999858 0
1441.0762629499857 0
1442.8805537999856 0
1444.6848446499855 0
1446.4891354999854 0
1448.2934263499853 0
1450.0977171999853 0.8398675862068965
1451.9020080499852 0.9499305910943628
1453.706298899985 1.0830629128510092
1455.510589749985 1.2461671020178222
1457.314880599985 1.4489223778802467
1459.1191714499848 1.7052336825389909
1460.9234622999847 2.0356400774615584
1462.7277531499847 2.4714769237593384
1464.5320439999846 3.0624021973307425
1466.3363348499845 3.890747571357945
1468.1406256999844 5.100654129852199
1469.9449165499843 6.961807814196059
1471.7492073999842 10.021776077809584
1473.5534982499842 15.508956862896598
1475.357789099984 26.504584843641872
1477.162079949984 51.19261079453684
1478.966370799984 101.08042391672134
1480.7706616499838 113.55311835326641
1482.5749524999837 61.447384996161084
1484.3792433499837 30.963572092876106
1486.1835341999836 17.58327064034036
1487.9878250499835 11.11077019173537
1489.7921158999834 7.593730677346783
1491.5964067499833 5.4967195928752615
1493.4006975999832 4.154202378423579
1495.2049884499831 3.2460386965794275
1497.009279299983 2.604371500432688
1498.813570149983 2.134808492523729
1500.617860999983 1.7811447533161535
1502.4221518499828 1.5082920618388722
1504.2264426999827 1.2934590149433072
1506.0307335499826 1.121334915751824
1507.8350243999826 0.9813330873665914
1509.6393152499825 0.8659477683863361
1511.4436060999824 0
1513.2478969499823 0
1515.0521877999822 0
1516.8564786499821 0
1518.660769499982 0
1520.465060349982 0
1522.2693511999819 0
1524.0736420499818 0
1525.8779328999817 0
1527.6822237499816 0
1529.4865145999815 0
1531.2908054499815 0
1533.0950962999814 0
1534.8993871499813 0
1536.7036779999812 0
1538.5079688499811 0
1540.312259699981 0
1542.116550549981 0
1543.9208413999809 0
1545.7251322499808 0
1547.5294230999807 0
1549.3337139499806 0
1551.1380047999805 0
1552.9422956499805 0
1554.7465864999804 0
1556.5508773499803 0
1558.3551681999802 0
1560.1594590499801 0
1561.96374989998 0
1563.76804074998 0
1565.5723315999799 0
1567.3766224499798 0
1569.1809132999797 0
1570.9852041499796 0
1572.7894949999795 0
1574.5937858499794 0
1576.3980766999794 0
1578.2023675499793 0
1580.0066583999792 0
1581.810949249979 0
1583.615240099979 0
1585.419530949979 0
1587.2238217999789 0
1589.0281126499788 0
1590.8324034999787 0
1592.6366943499786 0
1594.4409851999785 0
1596.2452760499784 0
1598.0495668999783 0
1599.8538577499783 0
1601.6581485999782 0
1603.462439449978 0
1605.266730299978 0
1607.071021149978 0.13686344827586205
1608.8753119999778 0.15479913554834462
1610.6796028499778 0.17649416096881318
1612.4838936999777 0.2030733528845605
1614.2881845499776 0.236114021040337
1616.0924753999775 0.2778820920598549
1617.8967662499774 0.33172457780898235
1619.7010570999773 0.40274783748660553
1621.5053479499772 0.4990440536313446
1623.3096387999772 0.6340298610545562
1625.113929649977 0.8311942550692953
1626.918220499977 1.1344848156218683
1628.722511349977 1.6331322393952636
1630.5268021999768 2.527314246051558
1632.3310930499767 4.319143798850407
1634.1353838999767 8.342264131453746
1635.9396747499766 16.471900568169353
1637.7439655999765 18.504430454917706
1639.5482564499764 10.013365364046022
1641.3525472999763 5.04577306847668
1643.1568381499762 2.865341026760232
1644.9611289999762 1.810592939190962
1646.765419849976 1.2374619319144098
1648.569710699976 0.8957364351730991
1650.374001549976 0.6769620255433665
1652.1782923999758 0.528969157218199
1653.9825832499757 0.42440412035712344
1655.7868740999756 0.4349276591619236
1657.5911649499756 0.3887019779376544
1659.3954557999755 0.35803600617897025
1661.1997466499754 0.339931065252817
1663.0040374999753 0.332895290438068
1664.8083283499752 0.33664458387092705
1666.6126191999751 0.3520844599381704
1668.416910049975 0.34845230253905307
1670.221200899975 0.42179228220595555
1672.025491749975 0.522273765229956
1673.8297825999748 0.6655940164428179
1675.6340734499747 0.8807667924412879
1677.4383642999746 1.2260695784620501
1679.2426551499746 1.8310693961842013
1681.0469459999745 3.018545445164396
1682.8512368499744 5.642129508524495
1684.6555276999743 10.90348134295278
1686.4598185499742 12.329118325870283
1688.2641093999741 7.133513045308663
1690.068400249974 4.310539208605173
1691.872691099974 3.5269308857152137
1693.6769819499739 4.064683610167166
1695.4812727999738 6.413698445337555
1697.2855636499737 11.679648085212905
1699.0898544999736 12.911413119643663
1700.8941453499735 7.090234595666012
1702.6984361999735 3.6731890311019986
1704.5027270499734 2.153865298314055
1706.3070178999733 1.4058050639425104
1708.1113087499732 0.9909612979492903
1709.9155995999731 0.7382091102534752
1711.719890449973 0.5728113291615937
1713.524181299973 0.4584834253324512
1715.3284721499729 0.3759979683328508
1717.1327629999728 0.23464157432147445
1718.9370538499727 0.195769602039791
1720.7413446999726 0.16577975268782658
1722.5456355499725 0.1421669721895336
1724.3499263999724 0.12324842762012826
1726.1542172499724 0.10786051365255687
1727.9585080999723 0.09517825527016399
1729.7627989499722 0
1731.567089799972 0
1733.371380649972 0
1735.175671499972 0
1736.9799623499719 0
1738.7842531999718 0
1740.5885440499717 0
1742.3928348999716 0
1744.1971257499715 0
1746.0014165999714 0
1747.8057074499714 0
1749.6099982999713 0
1751.4142891499712 0
1753.218579999971 0
1755.022870849971 0
1756.827161699971 0
1758.6314525499708 0
1760.4357433999708 0
1762.2400342499707 0
1764.0443250999706 0
1765.8486159499705 0
1767.6529067999704 0
1769.4571976499703 0
1771.2614884999703 0
1773.0657793499702 0
1774.87007019997 0
1776.67436104997 0
1778.47865189997 0
1780.2829427499698 0
1782.0872335999697 0
1783.8915244499697 0
1785.6958152999696 0
1787.5001061499695 0
1789.3043969999694 0
1791.1086878499693 0
1792.9129786999692 0
1794.7172695499692 0
1796.521560399969 0
1798.325851249969 0
1800.130142099969 0
1801.9344329499688 0
1803.7387237999687 0
1805.5430146499687 0
1807.3473054999686 0
1809.1515963499685 0
1810.9558871999684 0
1812.7601780499683 0
1814.5644688999682 0
1816.3687597499681 0
1818.173050599968 0
1819.977341449968 0
1821.781632299968 0
1823.5859231499678 0
1825.3902139999677 0
1827.1945048499676 0
1828.9987956999676 0
1830.8030865499675 0
1832.6073773999674 0
1834.4116682499673 0
1836.2159590999672 0
1838.0202499499671 0
1839.824540799967 0
1841.628831649967 0
1843.4331224999669 0
1845.2374133499668 0
1847.0417041999667 0
1848.8459950499666 0
1850.6502858999665 0
1852.4545767499665 0
1854.2588675999664 0
1856.0631584499663 0
1857.8674492999662 0
1859.6717401499661 0
1861.476030999966 0
1863.280321849966 0
1865.0846126999659 0
1866.8889035499658 0
1868.6931943999657 0
1870.4974852499656 0
1872.3017760999655 0
1874.1060669499655 0
1875.9103577999654 0
1877.7146486499653 0
1879.5189394999652 0
1881.3232303499651 0
1883.127521199965 0
1884.931812049965 0
1886.7361028999649 0
1888.5403937499648 0
1890.3446845999647 0
1892.1489754499646 0
1893.9532662999645 0
1895.7575571499644 0
1897.5618479999644 0
1899.3661388499643 0
1901.1704296999642 0
1902.974720549964 0
1904.779011399964 0
1906.583302249964 0
1908.3875930999639 0
1910.1918839499638 0
1911.9961747999637 0
1913.8004656499636 0
1915.6047564999635 0
1917.4090473499634 0
1919.2133381999633 0
1921.0176290499633 0
1922.8219198999632 0
1924.626210749963 0
1926.430501599963 0
1928.234792449963 0
1930.0390832999628 0
1931.8433741499628 0
1933.6476649999627 0
1935.4519558499626 0
1937.2562466999625 0
1939.0605375499624 0
1940.8648283999623 0
1942.6691192499623 0
1944.4734100999622 0
1946.277700949962 0
1948.081991799962 0
1949.886282649962 0
1951.6905734999618 0
1953.4948643499617 0
1955.2991551999617 0
1957.1034460499616 0
1958.9077368999615 0
1960.7120277499614 0
1962.5163185999613 0
1964.3206094499612 0
1966.1249002999612 0
1967.929191149961 0
1969.733481999961 0
1971.537772849961 0
1973.3420636999608 0
1975.1463545499607 0
1976.9506453999606 0
1978.7549362499606 0
1980.5592270999605 0
1982.3635179499604 0
1984.1678087999603 0
1985.9720996499602 0
1987.7763904999601 0
1989.58068134996 0
1991.38497219996 0
1993.18926304996 0
1994.9935538999598 0
1996.7978447499597 0
1998.6021355999596 0
2000.4064264499596 0
2002.2107172999595 0
2004.0150081499594 0
2005.8192989999593 0
2007.6235898499592 0
2009.4278806999591 0
2011.232171549959 0
2013.036462399959 0
2014.8407532499589 0
2016.6450440999588 0
2018.4493349499587 0
2020.2536257999586 0
2022.0579166499585 0
2023.8622074999585 0
2025.6664983499584 0
2027.4707891999583 0
2029.2750800499582 0
2031.0793708999581 0
2032.883661749958 0
2034.687952599958 0
2036.4922434499579 0
2038.2965342999578 0
2040.1008251499577 0
2041.9051159999576 0
2043.7094068499575 0
2045.5136976999574 0
2047.3179885499574 0
2049.1222793999573 0
2050.9265702499574 0
2052.7308610999576 0
2054.5351519499577 0
2056.339442799958 0
2058.143733649958 0
2059.948024499958 0
2061.7523153499583 0
2063.5566061999584 0
2065.3608970499586 0
2067.1651878999587 0
2068.969478749959 0
2070.773769599959 0
2072.578060449959 0
2074.3823512999593 0
2076.1866421499594 0
2077.9909329999596 0
2079.7952238499597 0
2081.59951469996 0
2083.40380554996 0
2085.20809639996 0
2087.0123872499603 0
2088.8166780999604 0
2090.6209689499606 0
2092.4252597999607 0
2094.229550649961 0
2096.033841499961 0
2097.838132349961 0
2099.6424231999613 0
2101.4467140499614 0
2103.2510048999616 0
2105.0552957499617 0
2106.859586599962 0
2108.663877449962 0
2110.468168299962 0
2112.2724591499623 0
2114.0767499999624 0
2115.8810408499626 0
2117.6853316999627 0
2119.489622549963 0
2121.293913399963 0
2123.098204249963 0
2124.9024950999633 0
2126.7067859499634 0
2128.5110767999636 0
2130.3153676499637 0
2132.119658499964 0
2133.923949349964 0
2135.728240199964 0
2137.5325310499643 0
2139.3368218999644 0
2141.1411127499646 0
2142.9454035999647 0
2144.749694449965 0
2146.553985299965 0
2148.358276149965 0
2150.1625669999653 0
2151.9668578499654 0
2153.7711486999656 0
2155.5754395499657 0
2157.379730399966 0
2159.184021249966 0
2160.988312099966 0
2162.7926029499663 0
2164.5968937999664 0
2166.4011846499666 0
2168.2054754999667 0
2170.009766349967 0
2171.814057199967 0
2173.618348049967 0
2175.4226388999673 0
2177.2269297499674 0
2179.0312205999676 0
2180.8355114499677 0
2182.639802299968 0
2184.444093149968 0
2186.248383999968 0
2188.0526748499683 0
2189.8569656999684 0
2191.6612565499686 0
2193.4655473999687 0
2195.269838249969 0
2197.074129099969 0
2198.878419949969 0
2200.6827107999693 0
2202.4870016499694 0
2204.2912924999696 0
2206.0955833499697 0
2207.89987419997 0
2209.70416504997 0
2211.50845589997 0
2213.3127467499703 0
2215.1170375999704 0
2216.9213284499706 0
2218.7256192999707 0
2220.529910149971 0
2222.334200999971 0
2224.138491849971 0
2225.9427826999713 0
2227.7470735499714 0
2229.5513643999716 0
2231.3556552499717 0
2233.159946099972 0
2234.964236949972 0
2236.768527799972 0
2238.5728186499723 0
2240.3771094999724 0
2242.1814003499726 0
2243.9856911999727 0
2245.789982049973 0
2247.594272899973 0
2249.398563749973 0
2251.2028545999733 0
2253.0071454499735 0
2254.8114362999736 0
2256.6157271499737 0
2258.420017999974 0
2260.224308849974 0
2262.028599699974 0
2263.8328905499743 0
2265.6371813999745 0
2267.4414722499746 0
2269.2457630999747 0
2271.050053949975 0
2272.854344799975 0
2274.658635649975 0
2276.4629264999753 0
2278.2672173499755 0
2280.0715081999756 0
2281.8757990499757 0
2283.680089899976 0
2285.484380749976 0
2287.288671599976 0
2289.0929624499763 0
2290.8972532999765 0
2292.7015441499766 0
2294.5058349999767 0
2296.310125849977 0
2298.114416699977 0
2299.918707549977 0
2301.7229983999773 0
2303.5272892499775 0
2305.3315800999776 0
2307.1358709499777 0
2308.940161799978 0
2310.744452649978 0
2312.548743499978 0
2314.3530343499783 0
2316.1573251999785 0
2317.9616160499786 0
2319.7659068999787 0
2321.570197749979 0
2323.374488599979 0
2325.178779449979 0
2326.9830702999793 0
2328.7873611499795 0
2330.5916519999796 0
2332.3959428499797 0
2334.20023369998 0
2336.00452454998 0
2337.80881539998 0
2339.6131062499803 0
2341.4173970999805 0
2343.2216879499806 0
2345.0259787999807 0
2346.830269649981 0
2348.634560499981 0
2350.438851349981 0
2352.2431421999813 0
2354.0474330499815 0
2355.8517238999816 0
2357.6560147499818 0
2359.460305599982 0
2361.264596449982 0
2363.068887299982 0
2364.8731781499823 0
2366.6774689999825 0
2368.4817598499826 0
2370.2860506999828 0
2372.090341549983 0
2373.894632399983 0
2375.698923249983 0
2377.5032140999833 0
2379.3075049499835 0
2381.1117957999836 0
2382.9160866499838 0
2384.720377499984 0
2386.524668349984 0
2388.328959199984 0
2390.1332500499843 0
2391.9375408999845 0
2393.7418317499846 0
2395.5461225999848 0
2397.350413449985 0
2399.154704299985 0
2400.958995149985 0
2402.7632859999853 0
2404.5675768499855 0
2406.3718676999856 0
2408.1761585499858 0
2409.980449399986 0
2411.784740249986 0
2413.589031099986 0
2415.3933219499863 0
2417.1976127999865 0
2419.0019036499866 0
2420.8061944999868 0
2422.610485349987 0
2424.414776199987 0
2426.219067049987 0
2428.0233578999873 0
2429.8276487499875 0
2431.6319395999876 0
2433.4362304499878 0
2435.240521299988 0
2437.044812149988 0
2438.849102999988 0
2440.6533938499883 0
2442.4576846999885 0
2444.2619755499886 0
2446.0662663999888 0
2447.870557249989 0
2449.674848099989 0
2451.479138949989 0
2453.2834297999893 0
2455.0877206499895 0
2456.8920114999896 0
2458.6963023499898 0
2460.50059319999 0
2462.30488404999 0
2464.10917489999 0
2465.9134657499903 0
2467.7177565999905 0
2469.5220474499906 0
2471.3263382999908 0
2473.130629149991 0
2474.934919999991 0
2476.739210849991 0
2478.5435016999913 0
2480.3477925499915 0
2482.1520833999916 0
2483.9563742499918 0
2485.760665099992 0
2487.564955949992 0
2489.369246799992 0
2491.1735376499923 0
2492.9778284999925 0
2494.7821193499926 0
2496.5864101999928 0
2498.390701049993 0
2500.194991899993 0
2501.999282749993 0
2503.8035735999933 0
2505.6078644499935 0
2507.4121552999936 0
2509.2164461499938 0
2511.020736999994 0
2512.825027849994 0
2514.629318699994 0
2516.4336095499943 0
2518.2379003999945 0
2520.0421912499946 0
2521.846482099995 0
2523.650772949995 0
2525.455063799995 0
2527.259354649995 0
2529.0636454999953 0
2530.8679363499955 0
2532.6722271999956 0
2534.476518049996 0
2536.280808899996 0
2538.085099749996 0
2539.889390599996 0
2541.6936814499963 0
2543.4979722999965 0
2545.3022631499966 0
2547.106553999997 0
2548.910844849997 0
2550.715135699997 0
2552.519426549997 0
2554.3237173999973 0
2556.1280082499975 0
2557.9322990999976 0
2559.736589949998 0
2561.540880799998 0
2563.345171649998 0
2565.149462499998 0
2566.9537533499984 0
2568.7580441999985 0
2570.5623350499986 0
2572.366625899999 0
2574.170916749999 0
2575.975207599999 0
2577.779498449999 0
2579.5837892999994 0
2581.3880801499995 0
2583.1923709999996 0
2584.99666185 0
2586.8009527 0
2588.60524355 0
2590.4095344 0
2592.2138252500004 0
2594.0181161000005 0
2595.8224069500006 0
2597.626697800001 0
2599.430988650001 0
2601.235279500001 0
2603.039570350001 0
2604.8438612000014 0
2606.6481520500015 0
2608.4524429000016 0
2610.256733750002 0
2612.061024600002 0
2613.865315450002 0
2615.669606300002 0
2617.4738971500024 0
2619.2781880000025 0
2621.0824788500026 0
2622.886769700003 0
2624.691060550003 0
2626.495351400003 0
2628.299642250003 0
2630.1039331000034 0
2631.9082239500035 0
2633.7125148000036 0
2635.516805650004 0
2637.321096500004 0
2639.125387350004 0
2640.929678200004 0
2642.7339690500044 0
2644.5382599000045 0
2646.3425507500046 0
2648.146841600005 0
2649.951132450005 0
2651.755423300005 0
2653.559714150005 0
2655.3640050000054 0
2657.1682958500055 0
2658.9725867000056 0
2660.776877550006 0
2662.581168400006 0
2664.385459250006 0
2666.189750100006 0
2667.9940409500064 0
2669.7983318000065 0
2671.6026226500067 0
2673.406913500007 0
2675.211204350007 0
2677.015495200007 0
2678.819786050007 0
2680.6240769000074 0
2682.4283677500075 0
2684.2326586000077 0
2686.036949450008 0
2687.841240300008 0
2689.645531150008 0
2691.449822000008 0
2693.2541128500084 0
2695.0584037000085 0
2696.8626945500087 0
2698.666985400009 0
2700.471276250009 0
2702.275567100009 0
2704.079857950009 0
2705.8841488000094 0
2707.6884396500095 0
2709.4927305000097 0
2711.29702135001 0
2713.10131220001 0
2714.90560305001 0
2716.7098939000102 0
2718.5141847500104 0
2720.3184756000105 0
2722.1227664500107 0
2723.927057300011 0
2725.731348150011 0
2727.535639000011 0
2729.3399298500112 0
2731.1442207000114 0
2732.9485115500115 0
2734.7528024000117 0
2736.557093250012 0
2738.361384100012 0
2740.165674950012 0
2741.9699658000122 0
2743.7742566500124 0
2745.5785475000125 0
2747.3828383500127 0
2749.187129200013 0
2750.991420050013 0
2752.795710900013 0
2754.6000017500132 0
2756.4042926000134 0
2758.2085834500135 0
2760.0128743000137 0
2761.817165150014 0
2763.621456000014 0
2765.425746850014 0
2767.2300377000142 0
2769.0343285500144 0
2770.8386194000145 0
2772.6429102500147 0
2774.447201100015 0
2776.251491950015 0
2778.055782800015 0
2779.8600736500152 0
2781.6643645000154 0
2783.4686553500155 0
2785.2729462000157 0
2787.077237050016 0
2788.881527900016 0
2790.685818750016 0
2792.4901096000162 0
2794.2944004500164 0
2796.0986913000165 0
2797.9029821500167 0
2799.707273000017 0
2801.511563850017 0
2803.315854700017 0
2805.1201455500172 0
2806.9244364000174 0
2808.7287272500175 0
2810.5330181000177 0
2812.337308950018 0
2814.141599800018 0
2815.945890650018 0
2817.7501815000182 0
2819.5544723500184 0
2821.3587632000185 0
2823.1630540500187 0
2824.967344900019 0
2826.771635750019 0
2828.575926600019 0
2830.3802174500192 0
2832.1845083000194 0
2833.9887991500195 0
2835.7930900000197 0
2837.59738085002 0
2839.40167170002 0
2841.20596255002 0
2843.0102534000202 0
2844.8145442500204 0
2846.6188351000205 0
2848.4231259500207 0
2850.227416800021 0
2852.031707650021 0
2853.835998500021 0
2855.6402893500212 0
2857.4445802000214 0
2859.2488710500215 0
2861.0531619000217 0
2862.857452750022 0
2864.661743600022 0
2866.466034450022 0
2868.2703253000223 0
2870.0746161500224 0
2871.8789070000225 0
2873.6831978500227 0
2875.487488700023 0
2877.291779550023 0
2879.096070400023 0
2880.9003612500233 0
2882.7046521000234 0
2884.5089429500235 0
2886.3132338000237 0
2888.117524650024 0
2889.921815500024 0
2891.726106350024 0
2893.5303972000243 0
2895.3346880500244 0
2897.1389789000245 0
2898.9432697500247 0
2900.747560600025 0
2902.551851450025 0
2904.356142300025 0
2906.1604331500253 0
2907.9647240000254 0
2909.7690148500255 0
2911.5733057000257 0
2913.377596550026 0
2915.181887400026 0
2916.986178250026 0
2918.7904691000263 0
2920.5947599500264 0
2922.3990508000265 0
2924.2033416500267 0
2926.007632500027 0
2927.811923350027 0
2929.616214200027 0
2931.4205050500273 0
2933.2247959000274 0
2935.0290867500275 0
2936.8333776000277 0
2938.637668450028 0
2940.441959300028 0
2942.246250150028 0
2944.0505410000283 0
2945.8548318500284 0
2947.6591227000285 0
2949.4634135500287 0
2951.267704400029 0
2953.071995250029 0
2954.876286100029 0
2956.6805769500293 0
2958.4848678000294 0
2960.2891586500295 0
2962.0934495000297 0
2963.89774035003 0
2965.70203120003 0
2967.50632205003 0
2969.3106129000303 0
2971.1149037500304 0
2972.9191946000306 0
2974.7234854500307 0
2976.527776300031 0
2978.332067150031 0
2980.136358000031 0
2981.9406488500313 0
2983.7449397000314 0
2985.5492305500316 0
2987.3535214000317 0
2989.157812250032 0
2990.962103100032 0
2992.766393950032 0
2994.5706848000323 0
2996.3749756500324 0
2998.1792665000326 0
2999.9835573500327 0
3001.787848200033 0
3003.592139050033 0
3005.396429900033 0
3007.2007207500333 0
3009.0050116000334 0
3010.8093024500336 0
3012.6135933000337 0
3014.417884150034 0
3016.222175000034 0
3018.026465850034 0
3019.8307567000343 0
3021.6350475500344 0
3023.4393384000346 0
3025.2436292500347 0
3027.047920100035 0
3028.852210950035 0
3030.656501800035 0
3032.4607926500353 0
3034.2650835000354 0
3036.0693743500356 0
3037.8736652000357 0
3039.677956050036 0
3041.482246900036 0
3043.286537750036 0
3045.0908286000363 0
3046.8951194500364 0
3048.6994103000366 0
3050.5037011500367 0
3052.307992000037 0
3054.112282850037 0
3055.916573700037 0
3057.7208645500373 0
3059.5251554000374 0
3061.3294462500376 0
3063.1337371000377 0
3064.938027950038 0
3066.742318800038 0
3068.546609650038 0
3070.3509005000383 0
3072.1551913500384 0
3073.9594822000386 0
3075.7637730500387 0
3077.568063900039 0
3079.372354750039 0
3081.176645600039 0
3082.9809364500393 0
3084.7852273000394 0
3086.5895181500396 0
3088.3938090000397 0
3090.19809985004 0
3092.00239070004 0
3093.80668155004 0
3095.6109724000403 0
3097.4152632500404 0
3099.2195541000406 0
3101.0238449500407 0
3102.828135800041 0
3104.632426650041 0
3106.436717500041 0
3108.2410083500413 0
3110.0452992000414 0
3111.8495900500416 0
3113.6538809000417 0
3115.458171750042 0
3117.262462600042 0
3119.066753450042 0
3120.8710443000423 0
3122.6753351500424 0
3124.4796260000426 0
3126.2839168500427 0
3128.088207700043 0
3129.892498550043 0
3131.696789400043 0
3133.5010802500433 0
3135.3053711000434 0
3137.1096619500436 0
3138.9139528000437 0
3140.718243650044 0
3142.522534500044 0
3144.326825350044 0
3146.1311162000443 0
3147.9354070500444 1.1300606896551724
3149.7396979000446 1.2781529333032418
3151.5439887500447 1.4572854606331782
3153.348279600045 1.676745808338664
3155.152570450045 1.949557583236623
3156.956861300045 2.294430197046249
3158.7611521500453 2.7389994180101023
3160.5654430000454 3.325427677884932
3162.3697338500456 4.120530897909138
3164.1740247000457 5.235088192439291
3165.978315550046 6.863044625531528
3167.782606400046 9.367268684926678
3169.586897250046 13.484524670387861
3171.3911881000463 20.8676495868643
3173.1954789500464 35.662513852609834
3174.9997698000466 68.88080693895222
3176.8040606500467 136.00597932107001
3178.608351500047 152.78826965835145
3180.412642350047 82.67883581477933
3182.216933200047 41.66218128674251
3184.0212240500473 23.658685336257594
3185.8255149000474 14.949790695179576
3187.6298057500476 12.568166806121518
3189.4340966000477 10.054637011596249
3191.238387450048 8.620862342848012
3193.042678300048 7.855405733036903
3194.846969150048 7.559502075592826
3196.6512600000483 7.645061738345171
3198.4555508500484 8.093944718138829
3200.2598417000486 8.946640819896578
3202.0641325500487 10.31146705243879
3203.868423400049 12.39825342838308
3205.672714250049 15.596179174074779
3207.477005100049 20.64994544685682
3209.2812959500493 28.04907007676409
3211.0855868000494 43.406659107879264
3212.8898776500496 74.18135786143742
3214.6941685000497 143.27850836429644
3216.49845935005 282.9051329642376
3218.30275020005 317.81386347015825
3220.10704105005 171.97969645357279
3221.9113319000503 86.66122618537042
3223.7156227500504 49.2122740060746
3225.5199136000506 31.0969601889561
3227.3242044500507 21.253426763771106
3229.128495300051 15.384286363575589
3230.932786150051 11.626832681215562
3232.737077000051 9.08505300509798
3234.5413678500513 7.289146968990769
3236.3456587000514 5.974928250470573
3238.1499495500516 4.985089829854228
3239.9542404000517 4.221426362974788
3241.758531250052 3.620148990542467
3243.562822100052 3.138405945933276
3245.367112950052 2.7465671077115177
3247.1714038000523 2.4236252586046354
3248.9756946500524 0
3250.7799855000526 0
3252.5842763500527 0
3254.388567200053 0
3256.192858050053 0
3257.997148900053 0
3259.8014397500533 0
3261.6057306000534 0
3263.4100214500536 0.9412524137931033
3265.2143123000537 1.064601702086917
3267.018603150054 1.2138051256566822
3268.822894000054 1.3965984781736114
3270.627184850054 1.6238294083214784
3272.4314757000543 1.911081396795212
3274.2357665500544 2.2813728830498428
3276.0400574000546 2.769821884219951
3277.8443482500547 3.432080851294381
3279.648639100055 4.360420146157682
3281.452929950055 5.716380880147686
3283.257220800055 7.802204201109058
3285.0615116500553 11.231557305765742
3286.8658025000555 17.381124503869053
3288.6700933500556 29.704092490768602
3290.4743842000557 57.37233972370907
3292.278675050056 113.28237279478763
3294.082965900056 127.26071168715539
3295.887256750056 68.86502158039963
3297.6915476000563 34.701347510812205
3299.4958384500565 19.705839592313467
3301.3001293000566 12.452009618911042
3303.1044201500567 8.510409792121331
3304.908711000057 6.160257485468257
3306.713001850057 4.655677966728796
3308.517292700057 3.637885076881989
3310.3215835500573 2.9187588632461834
3312.1258744000575 2.392512438356775
3313.9301652500576 1.9961560916338636
3315.7344561000577 1.690365918658344
3317.538746950058 1.4495992462998082
3319.343037800058 1.2566971430438272
3321.147328650058 1.0997949586196056
3322.9516195000583 0.9704808717444536
3324.7559103500585 0
3326.5602012000586 0
3328.3644920500587 0
3330.168782900059 0
3331.973073750059 0
3333.777364600059 0
3335.5816554500593 0
3337.3859463000595 0
3339.1902371500596 0
3340.9945280000597 0
3342.79881885006 0
3344.60310970006 0
3346.40740055006 0
3348.2116914000603 0
3350.0159822500605 0
3351.8202731000606 0
3353.6245639500607 0
3355.428854800061 0
3357.233145650061 0
3359.037436500061 0
3360.8417273500613 0
3362.6460182000615 0
3364.4503090500616 0
3366.2545999000617 0
3368.058890750062 0
3369.863181600062 0
3371.667472450062 0
3373.4717633000623 0
3375.2760541500625 0
3377.0803450000626 0
3378.8846358500628 0
3380.688926700063 0
3382.493217550063 0
3384.297508400063 0
3386.1017992500633 0
3387.9060901000635 0
3389.7103809500636 0
3391.5146718000638 0
3393.318962650064 0
3395.123253500064 0
3396.927544350064 0
3398.7318352000643 0
3400.5361260500645 0
3402.3404169000646 0
3404.1447077500648 0
3405.948998600065 0
3407.753289450065 0
3409.557580300065 0
3411.3618711500653 0
3413.1661620000655 0
3414.9704528500656 0
3416.7747437000658 0
3418.579034550066 0
3420.383325400066 0
3422.187616250066 0
3423.9919071000663 0
3425.7961979500665 0
3427.6004888000666 0
3429.4047796500668 0
3431.209070500067 0
3433.013361350067 0
3434.817652200067 0
3436.6219430500673 0
3438.4262339000675 0
3440.2305247500676 0
3442.0348156000678 0
3443.839106450068 0
3445.643397300068 0
3447.447688150068 0
3449.2519790000683 0
3451.0562698500685 0
3452.8605607000686 0
3454.6648515500688 0
3456.469142400069 0
3458.273433250069 0
3460.077724100069 0
3461.8820149500693 0
3463.6863058000695 0
3465.4905966500696 0
3467.2948875000698 0
3469.09917835007 0
3470.90346920007 0
3472.70776005007 0
3474.5120509000703 0
3476.3163417500705 0
3478.1206326000706 0
3479.9249234500708 0
3481.729214300071 0
3483.533505150071 0
3485.337796000071 0
3487.1420868500713 0
3488.9463777000715 0
3490.7506685500716 0
3492.5549594000718 0
3494.359250250072 0
3496.163541100072 0
3497.967831950072 0
3499.7721228000723 0
3501.5764136500725 0
3503.3807045000726 0
3505.1849953500728 0
3506.989286200073 0
3508.793577050073 0
3510.597867900073 0
3512.4021587500733 0
3514.2064496000735 0
3516.0107404500736 0
3517.8150313000738 0
3519.619322150074 0
3521.423613000074 0
3523.227903850074 0
3525.0321947000743 0
3526.8364855500745 0
3528.6407764000746 0
3530.4450672500748 0
3532.249358100075 0
3534.053648950075 0
3535.857939800075 0
3537.6622306500753 0
3539.4665215000755 0
3541.2708123500756 0
3543.075103200076 0
3544.879394050076 0
3546.683684900076 0
3548.487975750076 0
3550.2922666000763 0
3552.0965574500765 0
3553.9008483000766 0
3555.705139150077 0
3557.509430000077 0
3559.313720850077 0
3561.118011700077 0
3562.9223025500773 0
3564.7265934000775 0
3566.5308842500776 0
3568.335175100078 0
3570.139465950078 0
3571.943756800078 0
3573.748047650078 0
3575.5523385000783 0
3577.3566293500785 0
3579.1609202000786 0
3580.965211050079 0
3582.769501900079 0
3584.573792750079 0
3586.378083600079 0
3588.1823744500794 0
3589.9866653000795 0
3591.7909561500796 0
3593.59524700008 0
3595.39953785008 0
3597.20382870008 0
3599.00811955008 0
3600.8124104000804 0
3602.6167012500805 0
3604.4209921000806 0
3606.225282950081 0
3608.029573800081 0
3609.833864650081 0
3611.638155500081 0
3613.4424463500814 0
3615.2467372000815 0
3617.0510280500816 0
3618.855318900082 0
3620.659609750082 0
3622.463900600082 0
3624.268191450082 0
3626.0724823000824 0
3627.8767731500825 0
3629.6810640000826 0
3631.485354850083 0
3633.289645700083 0
3635.093936550083 0
3636.898227400083 0
3638.7025182500834 0
3640.5068091000835 0
3642.3110999500836 0
3644.115390800084 0
3645.919681650084 0
3647.723972500084 0
3649.528263350084 0
3651.3325542000844 0
3653.1368450500845 0
3654.9411359000846 0
3656.745426750085 0
3658.549717600085 0
3660.354008450085 0
3662.158299300085 0
3663.9625901500854 0
3665.7668810000855 0
3667.5711718500856 0
3669.375462700086 0
3671.179753550086 0
3672.984044400086 0
3674.788335250086 0
3676.5926261000864 0
3678.3969169500865 0
3680.2012078000866 0
3682.005498650087 0
3683.809789500087 0
3685.614080350087 0
3687.418371200087 0
3689.2226620500874 0
3691.0269529000875 0
3692.8312437500877 0
3694.635534600088 0
3696.439825450088 0
3698.244116300088 0
3700.048407150088 0
3701.8526980000884 0
3703.6569888500885 0
3705.4612797000887 0
3707.265570550089 0
3709.069861400089 0
3710.874152250089 0
3712.678443100089 0
3714.4827339500894 0
3716.2870248000895 0
3718.0913156500897 0
3719.89560650009 0
3721.69989735009 0
3723.50418820009 0
3725.30847905009 0
3727.1127699000904 0
3728.9170607500905 0
3730.7213516000907 0
3732.525642450091 0
3734.329933300091 0
3736.134224150091 0
3737.9385150000912 0
3739.7428058500914 0
3741.5470967000915 0
3743.3513875500917 0
3745.155678400092 0
3746.959969250092 0
3748.764260100092 0
3750.5685509500922 0
3752.3728418000924 0
3754.1771326500925 0
3755.9814235000927 0
3757.785714350093 0
3759.590005200093 0
3761.394296050093 0
3763.1985869000932 0
3765.0028777500934 0
3766.8071686000935 0
3768.6114594500937 0
3770.415750300094 0
3772.220041150094 0
3774.024332000094 0
3775.8286228500942 0
3777.6329137000944 0
3779.4372045500945 0
3781.2414954000947 0
3783.045786250095 0
3784.850077100095 0
3786.654367950095 0
3788.4586588000952 0
3790.2629496500954 0
3792.0672405000955 0
3793.8715313500957 0
3795.675822200096 0
3797.480113050096 0
3799.284403900096 0
3801.0886947500962 0
3802.8929856000964 0
3804.6972764500965 0
3806.5015673000967 0
3808.305858150097 0
3810.110149000097 0
3811.914439850097 0
3813.7187307000972 0
3815.5230215500974 0
3817.3273124000975 0
3819.1316032500977 0
3820.935894100098 0
3822.740184950098 0
3824.544475800098 0
3826.3487666500982 0
3828.1530575000984 0
3829.9573483500985 0
3831.7616392000987 0
3833.565930050099 0
3835.370220900099 0
3837.174511750099 0
3838.9788026000992 0.24127448275862068
3840.7830934500994 0.2728930319337579
3842.5873843000995 0.3111388609165917
3844.3916751500997 0.3579949124219541
3846.1959660001 0.4162418017098661
3848.0002568501 0.48987409621957206
3849.8045477001 0.5847921920531569
3851.6088385501002 0.7099980118569693
3853.4131294001004 0.879757140642868
3855.2174202501005 1.1177215590181921
3857.0217111001007 1.465299658091573
3858.826001950101 1.9999659553739126
3860.630292800101 2.879023883298213
3862.434583650101 4.455363686701783
3864.2388745001012 7.614152640143737
3866.0431653501014 14.706450032575946
3867.8474562001015 29.03806194938429
3869.6517470501017 32.62117784545898
3871.456037900102 17.652408874060423
3873.260328750102 8.895116282313975
3875.064619600102 5.051265935988209
3876.8689104501022 3.1918666407462917
3878.6732013001024 2.1815027409951697
3880.4774921501025 1.579080081693136
3882.2817830001027 1.1934060161253504
3884.086073850103 0.932511648732877
3885.890364700103 0.748175542189534
3887.694655550103 0.6132809781935741
3889.4989464001033 0.5116815866357985
3891.3032372501034 0.4332973352530923
3893.1075281001035 0.37158078240546366
3894.9118189501037 0.32213351990275385
3896.716109800104 0.28191424095493595
3898.520400650104 0.24876671435420866
3900.324691500104 0
3902.1289823501043 0
3903.9332732001044 0
3905.7375640501045 0
3907.5418549001047 0
3909.346145750105 0
3911.150436600105 0
3912.954727450105 0
3914.7590183001053 0
3916.5633091501054 0
##END=
