##TITLE=No title given
##JCAMP-DX=5.00 $$ WebMO output
##DATA TYPE=IR SPECTRUM
##DATA CLASS=XYDATA
##DATE=Sun Jun 07 15:24:17 GMT+1000 2020
##ORIGIN=WebMO
##OWNER=public domain
##SPECTROMETER/DATA SYSTEM=computed
##XUNITS=1/CM
##YUNITS=ARBITRARY UNITS
##XFACTOR=1.0
##YFACTOR=1.0
##FIRSTX=212.3422
##LASTX=2867.118699999885
##FIRSTY=0
##NPOINTS=2001
##XYDATA=(X++(Y..Y))
212.3422 0
213.66958825 0
214.99697650000002 0
216.32436475000003 0
217.65175300000004 0
218.97914125000005 0
220.30652950000007 0
221.63391775000008 0
222.9613060000001 0
224.2886942500001 0
225.61608250000012 0
226.94347075000013 0
228.27085900000014 0
229.59824725000016 0
230.92563550000017 0
232.25302375000018 2.6948524137931034
233.5804120000002 2.948216300865058
234.9078002500002 3.2389569858801837
236.23518850000022 3.5747797642436967
237.56257675000023 3.965475254008358
238.88996500000025 4.4236322241318815
240.21735325000026 4.965650349064709
241.54474150000027 5.613205433526717
242.87212975000028 6.395412211801895
244.1995180000003 7.352088742347559
245.5269062500003 8.538807478823095
246.85429450000032 10.034931769416195
248.18168275000033 11.956810102598222
249.50907100000035 14.480221495535966
250.83645925000036 17.880128442595062
252.16384750000037 22.604374344843265
253.49123575000038 29.417507918786868
254.8186240000004 39.69762849303592
256.1460122500004 56.08398072507469
257.4734005000004 83.93974639115925
258.80078875000044 134.42425587983922
260.12817700000045 226.8663227210674
261.45556525000046 354.66617179296213
262.7829535000005 373.9511927039116
264.1103417500005 251.78382695479806
265.4377300000005 148.98470439807366
266.7651182500005 91.78136329127219
268.0925065000005 60.52631239064397
269.41989475000054 42.38914686315788
270.74728300000055 31.149668219208667
272.07467125000056 23.77662187178849
273.4020595000006 18.7069423789806
274.7294477500006 15.083642553930085
276.0568360000006 12.409904281325696
277.3842242500006 10.3834033862361
278.7116125000006 8.81234320522691
280.03900075000064 7.570608503430889
281.36638900000065 6.572665161878453
282.69377725000066 5.75891866849949
284.0211655000007 5.086856593332583
285.3485537500007 4.525514933069537
286.6759420000007 4.051920946140124
288.0033302500007 3.648747640433745
289.3307185000007 3.3027315855609367
290.65810675000074 3.003583549137451
291.98549500000075 2.7432244383417865
293.31288325000077 0
294.6402715000008 0
295.9676597500008 0
297.2950480000008 0
298.6224362500008 0
299.94982450000083 0
301.27721275000084 0
302.60460100000086 0
303.93198925000087 0
305.2593775000009 0
306.5867657500009 0
307.9141540000009 0
309.2415422500009 0
310.56893050000093 0
311.89631875000094 0
313.22370700000096 0
314.55109525000097 0
315.878483500001 0
317.205871750001 0
318.533260000001 0
319.860648250001 0
321.18803650000103 0
322.51542475000105 0
323.84281300000106 0
325.17020125000107 0
326.4975895000011 0
327.8249777500011 0
329.1523660000011 0
330.4797542500011 0
331.80714250000113 0
333.13453075000115 0
334.46191900000116 0
335.7893072500012 0
337.1166955000012 0
338.4440837500012 0
339.7714720000012 0
341.0988602500012 0
342.42624850000124 0
343.75363675000125 0
345.08102500000126 0
346.4084132500013 0
347.7358015000013 0
349.0631897500013 0
350.3905780000013 0
351.7179662500013 0
353.04535450000134 0
354.37274275000135 0
355.70013100000136 0
357.0275192500014 0
358.3549075000014 0
359.6822957500014 0
361.0096840000014 0
362.3370722500014 0
363.66446050000144 0
364.99184875000145 0
366.31923700000146 0
367.6466252500015 0
368.9740135000015 0
370.3014017500015 0
371.6287900000015 0
372.9561782500015 0
374.28356650000154 0
375.61095475000155 0
376.93834300000157 0
378.2657312500016 0
379.5931195000016 0
380.9205077500016 0
382.2478960000016 0
383.57528425000163 0
384.90267250000164 0
386.23006075000166 0
387.55744900000167 0
388.8848372500017 0
390.2122255000017 0
391.5396137500017 0
392.8670020000017 0
394.19439025000173 0
395.52177850000174 0
396.84916675000176 0
398.17655500000177 0
399.5039432500018 0
400.8313315000018 0
402.1587197500018 0
403.4861080000018 0
404.81349625000183 0
406.14088450000185 0
407.46827275000186 0
408.79566100000187 0
410.1230492500019 0
411.4504375000019 0
412.7778257500019 0
414.1052140000019 0
415.43260225000193 0
416.75999050000195 0
418.08737875000196 0
419.414767000002 0
420.742155250002 0
422.069543500002 0
423.396931750002 0
424.724320000002 0
426.05170825000204 0
427.37909650000205 0
428.70648475000206 0
430.0338730000021 0
431.3612612500021 0
432.6886495000021 0
434.0160377500021 0
435.3434260000021 0
436.67081425000214 0
437.99820250000215 0
439.32559075000216 0
440.6529790000022 0
441.9803672500022 0
443.3077555000022 0
444.6351437500022 0
445.9625320000022 0
447.28992025000224 0
448.61730850000225 0
449.94469675000227 0
451.2720850000023 0
452.5994732500023 0
453.9268615000023 0
455.2542497500023 0
456.58163800000233 0
457.90902625000234 0
459.23641450000235 0
460.56380275000237 0
461.8911910000024 0
463.2185792500024 0
464.5459675000024 0
465.8733557500024 0
467.20074400000243 0
468.52813225000244 0
469.85552050000246 0
471.18290875000247 0
472.5102970000025 0
473.8376852500025 0
475.1650735000025 0
476.4924617500025 0
477.81985000000253 0
479.14723825000254 0
480.47462650000256 0
481.80201475000257 0
483.1294030000026 0
484.4567912500026 0
485.7841795000026 0
487.1115677500026 0
488.43895600000263 0
489.76634425000265 0
491.09373250000266 0
492.4211207500027 0
493.7485090000027 0
495.0758972500027 0
496.4032855000027 0
497.7306737500027 0
499.05806200000274 0
500.38545025000275 0
501.71283850000276 0
503.0402267500028 0
504.3676150000028 0
505.6950032500028 0
507.0223915000028 0
508.3497797500028 0
509.67716800000284 0
511.00455625000285 0
512.3319445000028 0
513.6593327500028 0
514.9867210000028 0
516.3141092500028 0
517.6414975000029 0
518.9688857500029 0
520.2962740000029 0
521.6236622500029 0
522.9510505000029 0
524.2784387500029 0
525.6058270000029 0
526.933215250003 0
528.260603500003 0
529.587991750003 0
530.915380000003 0
532.242768250003 0
533.570156500003 0
534.897544750003 0
536.224933000003 0
537.552321250003 0
538.8797095000031 0
540.2070977500031 0
541.5344860000031 0
542.8618742500031 0
544.1892625000031 0
545.5166507500031 0
546.8440390000031 0
548.1714272500031 0
549.4988155000032 0
550.8262037500032 0
552.1535920000032 0
553.4809802500032 0
554.8083685000032 0
556.1357567500032 0
557.4631450000032 0
558.7905332500033 0
560.1179215000033 0
561.4453097500033 0
562.7726980000033 0
564.1000862500033 0
565.4274745000033 0
566.7548627500033 0
568.0822510000033 0
569.4096392500034 0
570.7370275000034 0
572.0644157500034 0
573.3918040000034 0
574.7191922500034 0
576.0465805000034 0
577.3739687500034 0
578.7013570000034 0
580.0287452500035 0
581.3561335000035 0
582.6835217500035 0
584.0109100000035 0
585.3382982500035 0
586.6656865000035 0
587.9930747500035 0
589.3204630000035 0
590.6478512500036 0
591.9752395000036 0
593.3026277500036 0
594.6300160000036 0
595.9574042500036 0
597.2847925000036 0
598.6121807500036 0
599.9395690000036 0
601.2669572500037 0
602.5943455000037 0
603.9217337500037 0
605.2491220000037 0
606.5765102500037 0
607.9038985000037 0
609.2312867500037 0
610.5586750000037 0
611.8860632500038 0
613.2134515000038 0
614.5408397500038 0
615.8682280000038 0
617.1956162500038 0
618.5230045000038 0
619.8503927500038 0
621.1777810000038 0
622.5051692500039 0
623.8325575000039 0
625.1599457500039 0
626.4873340000039 0
627.8147222500039 0
629.1421105000039 0
630.4694987500039 0
631.796887000004 0
633.124275250004 0
634.451663500004 0
635.779051750004 0
637.106440000004 0
638.433828250004 0
639.761216500004 0
641.088604750004 0
642.415993000004 0
643.7433812500041 0
645.0707695000041 0
646.3981577500041 0
647.7255460000041 0
649.0529342500041 0
650.3803225000041 0
651.7077107500041 0
653.0350990000042 0
654.3624872500042 0
655.6898755000042 0
657.0172637500042 0
658.3446520000042 0
659.6720402500042 0
660.9994285000042 0
662.3268167500042 0
663.6542050000043 0
664.9815932500043 0
666.3089815000043 0
667.6363697500043 0
668.9637580000043 0
670.2911462500043 0
671.6185345000043 0
672.9459227500043 0
674.2733110000044 0
675.6006992500044 0
676.9280875000044 0
678.2554757500044 0
679.5828640000044 0
680.9102522500044 0
682.2376405000044 0
683.5650287500044 0
684.8924170000045 0
686.2198052500045 0
687.5471935000045 0
688.8745817500045 0
690.2019700000045 0
691.5293582500045 0
692.8567465000045 0
694.1841347500045 0
695.5115230000046 0
696.8389112500046 0
698.1662995000046 0
699.4936877500046 0
700.8210760000046 0
702.1484642500046 0
703.4758525000046 0
704.8032407500046 0
706.1306290000047 0
707.4580172500047 0
708.7854055000047 0
710.1127937500047 0
711.4401820000047 0
712.7675702500047 0
714.0949585000047 0
715.4223467500047 0
716.7497350000048 0
718.0771232500048 0
719.4045115000048 0
720.7318997500048 0
722.0592880000048 0
723.3866762500048 0
724.7140645000048 0
726.0414527500049 0
727.3688410000049 0
728.6962292500049 0
730.0236175000049 0
731.3510057500049 0
732.6783940000049 0
734.0057822500049 0
735.3331705000049 0
736.660558750005 0
737.987947000005 0
739.315335250005 0
740.642723500005 0
741.970111750005 0
743.297500000005 0
744.624888250005 0
745.952276500005 0
747.279664750005 0
748.6070530000051 0
749.9344412500051 0
751.2618295000051 0
752.5892177500051 0
753.9166060000051 0
755.2439942500051 0
756.5713825000051 0
757.8987707500052 0
759.2261590000052 0
760.5535472500052 0
761.8809355000052 0
763.2083237500052 0
764.5357120000052 0
765.8631002500052 0
767.1904885000052 0
768.5178767500053 0
769.8452650000053 0
771.1726532500053 0
772.5000415000053 0
773.8274297500053 0
775.1548180000053 0
776.4822062500053 0
777.8095945000053 0
779.1369827500054 0
780.4643710000054 0
781.7917592500054 0
783.1191475000054 0
784.4465357500054 0
785.7739240000054 0
787.1013122500054 0
788.4287005000054 0
789.7560887500055 0
791.0834770000055 0
792.4108652500055 0
793.7382535000055 0
795.0656417500055 0
796.3930300000055 0
797.7204182500055 0
799.0478065000055 0
800.3751947500056 1.0543475862068965
801.7025830000056 1.1534749452411197
803.0299712500056 1.2672257903296522
804.3573595000056 1.3986147799264856
805.6847477500056 1.5514724445863055
807.0121360000056 1.7307240774702313
808.3395242500056 1.9427859695346439
809.6669125000057 2.196138671428076
810.9943007500057 2.5021731779442553
812.3216890000057 2.876468106155879
813.6490772500057 3.340765901799667
814.9764655000057 3.92611707961502
816.3038537500057 4.67804240628687
817.6312420000057 5.665314546881045
818.9586302500057 6.9955112079717505
820.2860185000058 8.843848889912662
821.6134067500058 11.509453470492158
822.9407950000058 15.53149944892825
824.2681832500058 21.942578153705327
825.5955715000058 32.841007745492256
826.9229597500058 52.59282066399944
828.2503480000058 88.76031894300111
829.5777362500058 138.76137343373617
830.9051245000059 146.30654182341783
832.2325127500059 98.50916838227546
833.5599010000059 58.28952363397103
834.8872892500059 35.90900130546464
836.2146775000059 23.680618294512467
837.5420657500059 16.58454260715275
838.8694540000059 12.187152561665226
840.196842250006 9.302484896896082
841.524230500006 7.318998042949588
842.851618750006 5.9014000308681815
844.179007000006 4.855313247250403
845.506395250006 4.062454864265177
846.833783500006 3.44778539251429
848.161171750006 2.9619628744249975
849.488560000006 2.5715225119206644
850.815948250006 2.2531482489417103
852.1433365000061 1.9902073089827519
853.4707247500061 1.770585179953925
854.7981130000061 1.5852938911228989
856.1255012500061 1.4275543431169082
857.4528895000061 1.292177284849558
858.7802777500061 1.1751371053921273
860.1076660000061 1.0732728999130596
861.4350542500061 0
862.7624425000062 0
864.0898307500062 0
865.4172190000062 0
866.7446072500062 0
868.0719955000062 0
869.3993837500062 0
870.7267720000062 0
872.0541602500062 0
873.3815485000063 0
874.7089367500063 0
876.0363250000063 0
877.3637132500063 0
878.6911015000063 0
880.0184897500063 0
881.3458780000063 0
882.6732662500063 0
884.0006545000064 0
885.3280427500064 0
886.6554310000064 0
887.9828192500064 0
889.3102075000064 0
890.6375957500064 0
891.9649840000064 0
893.2923722500065 0
894.6197605000065 0
895.9471487500065 0
897.2745370000065 0
898.6019252500065 0
899.9293135000065 0
901.2567017500065 0
902.5840900000065 0
903.9114782500066 0
905.2388665000066 0
906.5662547500066 0
907.8936430000066 0
909.2210312500066 0
910.5484195000066 0
911.8758077500066 0
913.2031960000066 0
914.5305842500067 0
915.8579725000067 0
917.1853607500067 0
918.5127490000067 0
919.8401372500067 0
921.1675255000067 0
922.4949137500067 0
923.8223020000067 0
925.1496902500068 0
926.4770785000068 0
927.8044667500068 0
929.1318550000068 0
930.4592432500068 0
931.7866315000068 0
933.1140197500068 0.0881903448275862
934.4414080000068 0.09648180021615159
935.7687962500069 0.10599642934227972
937.0961845000069 0.11698639171396678
938.4235727500069 0.1297720900284918
939.7509610000069 0.14476549782090004
941.0783492500069 0.16250330234628643
942.4057375000069 0.18369485476721453
943.7331257500069 0.2092929488036397
945.060514000007 0.24060064962074215
946.387902250007 0.2794365925642098
947.715290500007 0.3283979814762718
949.042678750007 0.3912923767509372
950.370067000007 0.4738722314940047
951.697455250007 0.5851358259336026
953.024843500007 0.739739051341095
954.352231750007 0.9627021331659618
955.679620000007 1.2991240365221104
957.0070082500071 1.8353753155952117
958.3343965000071 2.74696868039498
959.6617847500071 4.399098599447406
960.9891730000071 7.424309816794834
962.3165612500071 11.606621508847729
963.6439495000071 12.237733118314303
964.9713377500071 8.23974715925119
966.2987260000072 4.87559629894851
967.6261142500072 3.0035893750523917
968.9535025000072 1.9807527616549119
970.2808907500072 1.3872052731627238
971.6082790000072 1.0193879143274758
972.9356672500072 0.7781014169739766
974.2630555000072 0.6121937107308859
975.5904437500072 0.4936194766283314
976.9178320000073 0.4061201022533905
978.2452202500073 0.33980188318631677
979.5726085000073 0.2883881811227321
980.8999967500073 0.24775181418283243
982.2273850000073 0.21509363707471124
983.5547732500073 0.18846339065156167
984.8821615000073 0.16646983514137742
986.2095497500073 0.14809965860358038
987.5369380000074 0.13260106699173457
988.8643262500074 0.11940702613311957
990.1917145000074 0.10808348387198231
991.5191027500074 0.09829372011659025
992.8464910000074 0.08977334265823636
994.1738792500074 0
995.5012675000074 0
996.8286557500074 0
998.1560440000075 0
999.4834322500075 0
1000.8108205000075 0
1002.1382087500075 0
1003.4655970000075 0
1004.7929852500075 0
1006.1203735000075 0
1007.4477617500075 0
1008.7751500000076 0.8685903448275862
1010.1025382500076 0.9502532310443979
1011.4299265000076 1.043963205869047
1012.7573147500076 1.1522037986995664
1014.0847030000076 1.2781306689208622
1015.4120912500076 1.4258013608770959
1016.7394795000076 1.6005017294867256
1018.0668677500076 1.8092182036167612
1019.3942560000077 2.0613348879260913
1020.7216442500077 2.369685724989376
1022.0490325000077 2.752182529360861
1023.3764207500077 3.234405268839965
1024.7038090000076 3.8538547628423503
1026.0311972500076 4.667187159345876
1027.3585855000076 5.763026891574897
1028.6859737500076 7.285720437344382
1030.0133620000076 9.48169302940872
1031.3407502500077 12.795126235900335
1032.6681385000077 18.076687208532352
1033.9955267500077 27.055007869620102
1035.3229150000077 43.32690360713216
1036.6503032500077 73.12233370312767
1037.9776915000077 114.31409411498112
1039.3050797500077 120.52993839547419
1040.6324680000077 81.15360973288081
1041.9598562500078 48.01994910920341
1043.2872445000078 29.582475679142178
1044.6146327500078 19.50851567286159
1045.9420210000078 13.662641969692762
1047.2694092500078 10.03999362685121
1048.5967975000078 7.663552959244712
1049.9241857500078 6.029521115317016
1051.2515740000078 4.8616785914199045
1052.5789622500079 3.9998936430889787
1053.9063505000079 3.3467227672925786
1055.233738750008 2.8403470944048275
1056.561127000008 2.440117839809295
1057.888515250008 2.118466106036845
1059.215903500008 1.8561837102853802
1060.543291750008 1.6395682746396403
1061.870680000008 1.4586396479889185
1063.198068250008 1.305993379751807
1064.525456500008 1.1760447269660785
1065.852844750008 1.064518692041285
1067.180233000008 0.968098904901313
1068.507621250008 0.8841813557741229
1069.835009500008 0
1071.162397750008 0
1072.489786000008 0
1073.817174250008 0
1075.144562500008 0
1076.471950750008 0
1077.799339000008 0
1079.1267272500081 0
1080.4541155000081 0
1081.7815037500081 0
1083.1088920000082 0
1084.4362802500082 0
1085.7636685000082 0
1087.0910567500082 0
1088.4184450000082 0
1089.7458332500082 0
1091.0732215000082 0
1092.4006097500082 0
1093.7279980000083 0
1095.0553862500083 0
1096.3827745000083 0
1097.7101627500083 0
1099.0375510000083 0
1100.3649392500083 0
1101.6923275000083 0
1103.0197157500083 0
1104.3471040000084 0
1105.6744922500084 0
1107.0018805000084 0
1108.3292687500084 0
1109.6566570000084 0.5883034482758621
1110.9840452500084 0.6436143987643183
1112.3114335000084 0.7070849423358433
1113.6388217500084 0.7803971940605136
1114.9662100000085 0.8656885082259741
1116.2935982500085 0.9657070932867824
1117.6209865000085 1.0840331026422174
1118.9483747500085 1.2253985025385896
1120.2757630000085 1.3961592249324097
1121.6031512500085 1.6050078056279358
1122.9305395000085 1.8640760652583248
1124.2579277500085 2.190689528281452
1125.5853160000086 2.610247810876314
1126.9127042500086 3.161124592211563
1128.2400925000086 3.903345936332075
1129.5674807500086 4.934678910475834
1130.8948690000086 6.422029369669774
1132.2222572500086 8.666245175911204
1133.5496455000086 12.243490250049575
1134.8770337500086 18.324581337578078
1136.2044220000087 29.345671347810498
1137.5318102500087 49.52636339984567
1138.8591985000087 77.42588454367878
1140.1865867500087 81.635927455088
1141.5139750000087 54.96601329981885
1142.8413632500087 32.524310010127294
1144.1687515000087 20.036456258365074
1145.4961397500088 13.21327955051852
1146.8235280000088 9.253820781215632
1148.1509162500088 6.800170997199709
1149.4783045000088 5.190588012883427
1150.8056927500088 4.083844685491218
1152.1330810000088 3.292855253081359
1153.4604692500088 2.7091611563251297
1154.7878575000088 2.266763102014887
1156.1152457500089 1.9237906567685523
1157.4426340000089 1.6527120614542479
1158.7700222500089 1.4348546730442906
1160.097410500009 1.2572086299337497
1161.424798750009 1.11049319785574
1162.752187000009 0.9879487376458305
1164.079575250009 0.8845601534817266
1165.406963500009 0.7965448526118766
1166.734351750009 0.7210073436935454
1168.061740000009 0.6557014217543258
1169.389128250009 0.5988633693670583
1170.716516500009 0
1172.043904750009 0
1173.371293000009 0
1174.698681250009 0
1176.026069500009 0
1177.353457750009 0
1178.680846000009 0
1180.008234250009 0
1181.335622500009 0
1182.663010750009 0
1183.9903990000091 0
1185.3177872500091 0
1186.6451755000091 0
1187.9725637500092 0
1189.2999520000092 0
1190.6273402500092 0
1191.9547285000092 0.03466758620689655
1193.2821167500092 0.037926953715048235
1194.6095050000092 0.04166715028760453
1195.9368932500092 0.04598729971752074
1197.2642815000092 0.051013352165787375
1198.5916697500093 0.05690725424990618
1199.9190580000093 0.10178618439305714
1201.2464462500093 0.11368042968593714
1202.5738345000093 0.12783263233781494
1203.9012227500093 0.14486341056415541
1205.2286110000093 0.16562538546203917
1206.5559992500093 0.1913165922853169
1207.8833875000093 0.22366446170256654
1209.2107757500094 0.2652351757183976
1210.5381640000094 0.31997548669080667
1211.8655522500094 0.39420670601652097
1213.1929405000094 0.49854596408775526
1214.5203287500094 0.651837981495787
1215.8477170000094 0.8896715612005272
1217.1751052500094 1.2835132077788745
1218.5024935000095 1.980788372592486
1219.8298817500095 3.236449553384174
1221.1572700000095 4.976349041681719
1222.4846582500095 5.36904049184229
1223.8120465000095 4.0279268904846415
1225.1394347500095 3.097304117307184
1226.4668230000095 3.071541854023905
1227.7942112500095 3.9697695000874313
1229.1215995000096 5.534098496071588
1230.4489877500096 5.660775710785768
1231.7763760000096 3.847501211247852
1233.1037642500096 2.3362947576279063
1234.4311525000096 1.4850523183516269
1235.7585407500096 1.0110180181713067
1237.0859290000096 0.7298282062163793
1238.4133172500096 1.035548860032891
1239.7407055000097 0.9613714938034041
1241.0680937500097 0.9294431796010948
1242.3954820000097 0.9283267211611465
1243.7228702500097 0.9522454146105509
1245.0502585000097 0.9988094821292344
1246.3776467500097 1.067971129386969
1247.7050350000097 1.161626731945218
1249.0324232500097 1.283631881070707
1250.3598115000098 1.440167744192928
1251.6871997500098 1.6405138769801988
1253.0145880000098 1.8660498369889096
1254.3419762500098 2.2045804274845278
1255.6693645000098 2.6521440671911307
1256.9967527500098 3.2579407291499525
1258.3241410000098 4.102263691589683
1259.6515292500098 5.322321367160889
1260.9789175000099 7.130166831873675
1262.3063057500099 10.073350835945316
1263.6336940000099 15.07657808070641
1264.96108225001 24.144197199131714
1266.28847050001 40.74789328583382
1267.61585875001 63.70226813295451
1268.94324700001 67.16608755167279
1270.27063525001 45.223373785924295
1271.59802350001 26.759427151725287
1272.92541175001 16.48502586088688
1274.25280000001 10.87124650630207
1275.58018825001 7.613595584132488
1276.90757650001 5.594851370011539
1278.23496475001 4.2705644412478945
1279.56235300001 3.3599896301054537
1280.88974125001 2.70920183206253
1282.21712950001 2.228966597059023
1283.54451775001 1.8649829029331897
1284.87190600001 1.5828017848476517
1286.19929425001 1.3597714447283236
1287.52668250001 1.1805289361922124
1288.8540707500101 1.0343703751672875
1290.1814590000101 0.9136600229568044
1291.5088472500101 0.8128363758198321
1292.8362355000102 0.7277732557906018
1294.1636237500102 0.655358528740879
1295.4910120000102 0.5932099246200387
1296.8184002500102 0.5394793747585763
1298.1457885000102 0.4927157778727565
1299.4731767500102 0
1300.8005650000102 0
1302.1279532500103 0
1303.4553415000103 0
1304.7827297500103 0
1306.1101180000103 0
1307.4375062500103 0
1308.7648945000103 0
1310.0922827500103 0
1311.4196710000103 0
1312.7470592500104 0
1314.0744475000104 0
1315.4018357500104 0
1316.7292240000104 0
1318.0566122500104 0
1319.3840005000104 0
1320.7113887500104 0
1322.0387770000104 0
1323.3661652500105 0
1324.6935535000105 0
1326.0209417500105 0
1327.3483300000105 0
1328.6757182500105 0
1330.0031065000105 0
1331.3304947500105 0
1332.6578830000105 0
1333.9852712500106 0
1335.3126595000106 0
1336.6400477500106 0
1337.9674360000106 0
1339.2948242500106 0
1340.6222125000106 0
1341.9496007500106 0
1343.2769890000106 0
1344.6043772500107 0
1345.9317655000107 0
1347.2591537500107 0
1348.5865420000107 0
1349.9139302500107 0
1351.2413185000107 0
1352.5687067500107 0
1353.8960950000107 0
1355.2234832500108 0
1356.5508715000108 0
1357.8782597500108 0
1359.2056480000108 0
1360.5330362500108 0
1361.8604245000108 0
1363.1878127500108 0
1364.5152010000108 0
1365.8425892500109 0
1367.1699775000109 0
1368.4973657500109 0
1369.824754000011 0
1371.152142250011 0
1372.479530500011 0
1373.806918750011 0
1375.134307000011 0
1376.461695250011 0
1377.789083500011 0
1379.116471750011 0
1380.443860000011 0
1381.771248250011 0
1383.098636500011 0
1384.426024750011 0
1385.753413000011 0
1387.080801250011 0
1388.408189500011 0
1389.735577750011 0
1391.062966000011 0
1392.3903542500111 0
1393.7177425000111 0
1395.0451307500111 0
1396.3725190000112 0
1397.6999072500112 0
1399.0272955000112 0
1400.3546837500112 0
1401.6820720000112 0
1403.0094602500112 0
1404.3368485000112 0
1405.6642367500112 0
1406.9916250000113 0
1408.3190132500113 0
1409.6464015000113 0
1410.9737897500113 0
1412.3011780000113 0
1413.6285662500113 0
1414.9559545000113 0
1416.2833427500113 0
1417.6107310000114 0
1418.9381192500114 0
1420.2655075000114 0
1421.5928957500114 0
1422.9202840000114 0
1424.2476722500114 0
1425.5750605000114 0
1426.9024487500114 0
1428.2298370000115 0
1429.5572252500115 0
1430.8846135000115 0
1432.2120017500115 0
1433.5393900000115 0
1434.8667782500115 0
1436.1941665000115 0
1437.5215547500115 0
1438.8489430000116 0
1440.1763312500116 0
1441.5037195000116 0
1442.8311077500116 0
1444.1584960000116 0
1445.4858842500116 0
1446.8132725000116 0
1448.1406607500116 0
1449.4680490000117 0
1450.7954372500117 0
1452.1228255000117 0
1453.4502137500117 0
1454.7776020000117 0
1456.1049902500117 0
1457.4323785000117 0
1458.7597667500117 0
1460.0871550000118 0
1461.4145432500118 0
1462.7419315000118 0
1464.0693197500118 0
1465.3967080000118 0
1466.7240962500118 0
1468.0514845000118 0
1469.3788727500119 0
1470.7062610000119 0
1472.0336492500119 0
1473.361037500012 0
1474.688425750012 0
1476.015814000012 0
1477.343202250012 0
1478.670590500012 0
1479.997978750012 0
1481.325367000012 0
1482.652755250012 0
1483.980143500012 0
1485.307531750012 0
1486.634920000012 0
1487.962308250012 0
1489.289696500012 0
1490.617084750012 0
1491.944473000012 0
1493.271861250012 0
1494.599249500012 0
1495.926637750012 0
1497.2540260000121 0
1498.5814142500121 0
1499.9088025000121 0
1501.2361907500122 0
1502.5635790000122 0
1503.8909672500122 0
1505.2183555000122 0
1506.5457437500122 0
1507.8731320000122 0
1509.2005202500122 0
1510.5279085000122 0
1511.8552967500123 0
1513.1826850000123 0
1514.5100732500123 0
1515.8374615000123 0
1517.1648497500123 0
1518.4922380000123 0
1519.8196262500123 0
1521.1470145000123 0
1522.4744027500124 0
1523.8017910000124 0
1525.1291792500124 0
1526.4565675000124 0
1527.7839557500124 0
1529.1113440000124 0
1530.4387322500124 0
1531.7661205000124 0
1533.0935087500125 0
1534.4208970000125 0
1535.7482852500125 0
1537.0756735000125 0
1538.4030617500125 0
1539.7304500000125 0
1541.0578382500125 0
1542.3852265000125 0
1543.7126147500126 0
1545.0400030000126 0
1546.3673912500126 0
1547.6947795000126 0
1549.0221677500126 0
1550.3495560000126 0
1551.6769442500126 0
1553.0043325000127 0
1554.3317207500127 0
1555.6591090000127 0
1556.9864972500127 0
1558.3138855000127 0
1559.6412737500127 0
1560.9686620000127 0
1562.2960502500127 0
1563.6234385000128 0
1564.9508267500128 0
1566.2782150000128 0
1567.6056032500128 0
1568.9329915000128 0
1570.2603797500128 0
1571.5877680000128 0
1572.9151562500128 0
1574.2425445000129 0
1575.5699327500129 0
1576.8973210000129 0
1578.224709250013 0
1579.552097500013 0
1580.879485750013 0
1582.206874000013 0
1583.534262250013 0
1584.861650500013 0
1586.189038750013 0
1587.516427000013 0
1588.843815250013 0
1590.171203500013 0
1591.498591750013 0
1592.825980000013 0
1594.153368250013 0
1595.480756500013 0
1596.808144750013 0
1598.135533000013 0
1599.462921250013 0
1600.790309500013 0
1602.1176977500131 0
1603.4450860000131 0
1604.7724742500131 0
1606.0998625000132 0
1607.4272507500132 0
1608.7546390000132 0
1610.0820272500132 0
1611.4094155000132 0
1612.7368037500132 0
1614.0641920000132 0
1615.3915802500132 0
1616.7189685000133 0
1618.0463567500133 0
1619.3737450000133 0
1620.7011332500133 0
1622.0285215000133 0
1623.3559097500133 0
1624.6832980000133 0
1626.0106862500134 0
1627.3380745000134 0
1628.6654627500134 0
1629.9928510000134 0
1631.3202392500134 0
1632.6476275000134 0
1633.9750157500134 0
1635.3024040000134 0
1636.6297922500135 0
1637.9571805000135 0
1639.2845687500135 0
1640.6119570000135 0
1641.9393452500135 0
1643.2667335000135 0
1644.5941217500135 0
1645.9215100000135 0
1647.2488982500136 0
1648.5762865000136 0
1649.9036747500136 0
1651.2310630000136 0
1652.5584512500136 0
1653.8858395000136 0
1655.2132277500136 0
1656.5406160000136 0
1657.8680042500137 0
1659.1953925000137 0
1660.5227807500137 0
1661.8501690000137 0
1663.1775572500137 0
1664.5049455000137 0
1665.8323337500137 0
1667.1597220000137 0
1668.4871102500138 0
1669.8144985000138 0
1671.1418867500138 0
1672.4692750000138 0
1673.7966632500138 0
1675.1240515000138 0
1676.4514397500138 0
1677.7788280000138 0
1679.1062162500139 0
1680.4336045000139 0
1681.7609927500139 0
1683.088381000014 0
1684.415769250014 0
1685.743157500014 0
1687.070545750014 0
1688.397934000014 0
1689.725322250014 0
1691.052710500014 0
1692.380098750014 0
1693.707487000014 0
1695.034875250014 0
1696.362263500014 0
1697.689651750014 0
1699.017040000014 0
1700.344428250014 0
1701.671816500014 0
1702.999204750014 0
1704.326593000014 0
1705.653981250014 0
1706.9813695000141 0
1708.3087577500141 0
1709.6361460000142 0
1710.9635342500142 0
1712.2909225000142 0
1713.6183107500142 0
1714.9456990000142 0
1716.2730872500142 0
1717.6004755000142 0
1718.9278637500142 0
1720.2552520000143 0
1721.5826402500143 0
1722.9100285000143 0
1724.2374167500143 0
1725.5648050000143 0
1726.8921932500143 0
1728.2195815000143 0
1729.5469697500143 0
1730.8743580000144 0
1732.2017462500144 0
1733.5291345000144 0
1734.8565227500144 0
1736.1839110000144 0
1737.5112992500144 0
1738.8386875000144 0
1740.1660757500144 0
1741.4934640000145 0
1742.8208522500145 0
1744.1482405000145 0
1745.4756287500145 0
1746.8030170000145 0
1748.1304052500145 0
1749.4577935000145 0
1750.7851817500145 0
1752.1125700000146 0
1753.4399582500146 0
1754.7673465000146 0
1756.0947347500146 0
1757.4221230000146 0
1758.7495112500146 0
1760.0768995000146 0
1761.4042877500146 0
1762.7316760000147 0
1764.0590642500147 0
1765.3864525000147 0
1766.7138407500147 0
1768.0412290000147 0
1769.3686172500147 0
1770.6960055000147 0
1772.0233937500147 0
1773.3507820000148 0
1774.6781702500148 0
1776.0055585000148 0
1777.3329467500148 0
1778.6603350000148 0
1779.9877232500148 0
1781.3151115000148 0
1782.6424997500148 0
1783.9698880000149 0
1785.2972762500149 0
1786.624664500015 0
1787.952052750015 0
1789.279441000015 0
1790.606829250015 0
1791.934217500015 0
1793.261605750015 0
1794.588994000015 0
1795.916382250015 0
1797.243770500015 0
1798.571158750015 0
1799.898547000015 0
1801.225935250015 0
1802.553323500015 0
1803.880711750015 0
1805.208100000015 0
1806.535488250015 0
1807.862876500015 0
1809.190264750015 0
1810.5176530000151 0
1811.8450412500151 0
1813.1724295000151 0
1814.4998177500152 0
1815.8272060000152 0
1817.1545942500152 0
1818.4819825000152 0
1819.8093707500152 0
1821.1367590000152 0
1822.4641472500152 0
1823.7915355000152 0
1825.1189237500153 0
1826.4463120000153 0
1827.7737002500153 0
1829.1010885000153 0
1830.4284767500153 0
1831.7558650000153 0
1833.0832532500153 0
1834.4106415000153 0
1835.7380297500154 0
1837.0654180000154 0
1838.3928062500154 0
1839.7201945000154 0
1841.0475827500154 0
1842.3749710000154 0
1843.7023592500154 0
1845.0297475000154 0
1846.3571357500155 0
1847.6845240000155 0
1849.0119122500155 0
1850.3393005000155 0
1851.6666887500155 0
1852.9940770000155 0
1854.3214652500155 0
1855.6488535000155 0
1856.9762417500156 0
1858.3036300000156 0
1859.6310182500156 0
1860.9584065000156 0
1862.2857947500156 0
1863.6131830000156 0
1864.9405712500156 0
1866.2679595000156 0
1867.5953477500157 0
1868.9227360000157 0
1870.2501242500157 0
1871.5775125000157 0
1872.9049007500157 0
1874.2322890000157 0
1875.5596772500157 0
1876.8870655000158 0
1878.2144537500158 0
1879.5418420000158 0
1880.8692302500158 0
1882.1966185000158 0
1883.5240067500158 0
1884.8513950000158 0
1886.1787832500158 0
1887.5061715000159 0
1888.8335597500159 0
1890.1609480000159 0
1891.488336250016 0
1892.815724500016 0
1894.143112750016 0
1895.470501000016 0
1896.797889250016 0
1898.125277500016 0
1899.452665750016 0
1900.780054000016 0
1902.107442250016 0
1903.434830500016 0
1904.762218750016 0
1906.089607000016 0
1907.416995250016 0
1908.744383500016 0
1910.071771750016 0
1911.399160000016 0
1912.726548250016 0
1914.053936500016 0
1915.3813247500161 0
1916.7087130000161 0
1918.0361012500161 0
1919.3634895000162 0
1920.6908777500162 0
1922.0182660000162 0
1923.3456542500162 0
1924.6730425000162 0
1926.0004307500162 0
1927.3278190000162 0
1928.6552072500162 0
1929.9825955000163 0
1931.3099837500163 0
1932.6373720000163 0
1933.9647602500163 0
1935.2921485000163 0
1936.6195367500163 0
1937.9469250000163 0
1939.2743132500163 0
1940.6017015000164 0
1941.9290897500164 0
1943.2564780000164 0
1944.5838662500164 0
1945.9112545000164 0
1947.2386427500164 0
1948.5660310000164 0
1949.8934192500164 0
1951.2208075000165 0
1952.5481957500165 0
1953.8755840000165 0
1955.2029722500165 0
1956.5303605000165 0
1957.8577487500165 0
1959.1851370000165 0
1960.5125252500166 0
1961.8399135000166 0
1963.1673017500166 0
1964.4946900000166 0
1965.8220782500166 0
1967.1494665000166 0
1968.4768547500166 0
1969.8042430000166 0
1971.1316312500167 0
1972.4590195000167 0
1973.7864077500167 0
1975.1137960000167 0
1976.4411842500167 0
1977.7685725000167 0
1979.0959607500167 0
1980.4233490000167 0
1981.7507372500168 0
1983.0781255000168 0
1984.4055137500168 0
1985.7329020000168 0
1987.0602902500168 0
1988.3876785000168 0
1989.7150667500168 0
1991.0424550000168 0
1992.3698432500169 0
1993.6972315000169 0
1995.0246197500169 0
1996.352008000017 0
1997.679396250017 0
1999.006784500017 0
2000.334172750017 0
2001.661561000017 0
2002.988949250017 0
2004.316337500017 0
2005.643725750017 0
2006.971114000017 0
2008.298502250017 0
2009.625890500017 0
2010.953278750017 0
2012.280667000017 0
2013.608055250017 0
2014.935443500017 0
2016.262831750017 0
2017.590220000017 0
2018.917608250017 0
2020.2449965000171 0
2021.5723847500171 0
2022.8997730000171 0
2024.2271612500172 0
2025.5545495000172 0
2026.8819377500172 0
2028.2093260000172 0
2029.5367142500172 0
2030.8641025000172 0
2032.1914907500172 0
2033.5188790000173 0
2034.8462672500173 0
2036.1736555000173 0
2037.5010437500173 0
2038.8284320000173 0
2040.1558202500173 0
2041.4832085000173 0
2042.8105967500173 0
2044.1379850000174 0
2045.4653732500174 0
2046.7927615000174 0
2048.1201497500174 0
2049.447538000017 0
2050.774926250017 0
2052.1023145000167 0
2053.4297027500165 0
2054.7570910000163 0
2056.084479250016 0
2057.411867500016 0
2058.7392557500157 0
2060.0666440000155 0
2061.3940322500152 0
2062.721420500015 0
2064.048808750015 0
2065.3761970000146 0
2066.7035852500144 0
2068.030973500014 0
2069.358361750014 0
2070.6857500000137 0
2072.0131382500135 0
2073.3405265000133 0
2074.667914750013 0
2075.995303000013 0
2077.3226912500127 0
2078.6500795000125 0
2079.9774677500122 0
2081.304856000012 0
2082.632244250012 0
2083.9596325000116 0
2085.2870207500114 0
2086.614409000011 0
2087.941797250011 0
2089.2691855000107 0
2090.5965737500105 0
2091.9239620000103 0
2093.25135025001 0
2094.57873850001 0
2095.9061267500097 0
2097.2335150000094 0
2098.5609032500092 0
2099.888291500009 0
2101.215679750009 0
2102.5430680000086 0
2103.8704562500084 0
2105.197844500008 0
2106.525232750008 0
2107.8526210000077 0
2109.1800092500075 0
2110.5073975000073 0
2111.834785750007 0
2113.162174000007 0
2114.4895622500067 0
2115.8169505000064 0
2117.144338750006 0
2118.471727000006 0
2119.799115250006 0
2121.1265035000056 0
2122.4538917500054 0
2123.781280000005 0
2125.108668250005 0
2126.4360565000047 0
2127.7634447500045 0
2129.0908330000043 0
2130.418221250004 0
2131.745609500004 0
2133.0729977500037 0
2134.4003860000034 0
2135.727774250003 0
2137.055162500003 0
2138.382550750003 0
2139.7099390000026 0
2141.0373272500024 0
2142.364715500002 0
2143.692103750002 0
2145.0194920000017 0
2146.3468802500015 0
2147.6742685000013 0
2149.001656750001 0
2150.329045000001 0
2151.6564332500006 0
2152.9838215000004 0
2154.31120975 0
2155.638598 0
2156.96598625 0
2158.2933744999996 0
2159.6207627499994 0
2160.948150999999 0
2162.275539249999 0
2163.6029274999987 0
2164.9303157499985 0
2166.2577039999983 0
2167.585092249998 0
2168.912480499998 0
2170.2398687499976 0
2171.5672569999974 0
2172.894645249997 0
2174.222033499997 0
2175.549421749997 0
2176.8768099999966 0
2178.2041982499964 0
2179.531586499996 0
2180.858974749996 0
2182.1863629999957 0
2183.5137512499955 0
2184.8411394999953 0
2186.168527749995 0
2187.495915999995 0
2188.8233042499946 0
2190.1506924999944 0
2191.478080749994 0
2192.805468999994 0
2194.132857249994 0
2195.4602454999936 0
2196.7876337499933 0
2198.115021999993 0
2199.442410249993 0
2200.7697984999927 0
2202.0971867499925 0
2203.4245749999923 0
2204.751963249992 0
2206.079351499992 0
2207.4067397499916 0
2208.7341279999914 0
2210.061516249991 0
2211.388904499991 0
2212.7162927499908 0
2214.0436809999906 0
2215.3710692499903 0
2216.69845749999 0
2218.02584574999 0
2219.3532339999897 0
2220.6806222499895 0
2222.0080104999893 0
2223.335398749989 0
2224.662786999989 0
2225.9901752499886 0
2227.3175634999884 0
2228.644951749988 0
2229.972339999988 0
2231.2997282499878 0
2232.6271164999876 0
2233.9545047499873 0
2235.281892999987 0
2236.609281249987 0
2237.9366694999867 0
2239.2640577499865 0
2240.5914459999863 0
2241.918834249986 0
2243.246222499986 0
2244.5736107499856 0
2245.9009989999854 0
2247.228387249985 0
2248.555775499985 0
2249.8831637499848 0
2251.2105519999845 0
2252.5379402499843 0.7029875862068965
2253.865328499984 0.7690808781783031
2255.192716749984 0.8449243979661635
2256.5201049999837 0.93252817290637
2257.8474932499835 1.0344462140895323
2259.1748814999833 1.1539624669582993
2260.502269749983 1.2953550016205118
2261.829657999983 1.4642782359437736
2263.1570462499826 1.6683271301094202
2264.4844344999824 1.9178887467480668
2265.811822749982 2.2274598890455235
2267.139210999982 2.617743526964131
2268.4665992499818 3.1190906892468995
2269.7939874999815 3.7773556372816706
2271.1213757499813 4.664265942946554
2272.448763999981 5.896647429393639
2273.776152249981 7.673942653848828
2275.1035404999807 10.355646895390212
2276.4309287499805 14.630241727878184
2277.7583169999803 21.896783438021224
2279.08570524998 35.0663296753431
2280.41309349998 59.18105488253343
2281.7404817499796 92.51932118492185
2283.0678699999794 97.5500717489454
2284.395258249979 65.68111257273755
2285.722646499979 38.86461358355563
2287.0500347499787 23.942372023343268
2288.3774229999785 15.78908218936167
2289.7048112499783 11.057764752617732
2291.032199499978 8.125799379779938
2292.359587749978 6.202443566955114
2293.6869759999777 4.879951199188953
2295.0143642499775 3.934765932239626
2296.3417524999772 3.237286246602872
2297.669140749977 2.7086469172668775
2298.996528999977 2.2988152697963233
2300.3239172499766 1.97489249159219
2301.6513054999764 1.7145658862243838
2302.978693749976 1.5022894438346346
2304.306081999976 1.3269732396576914
2305.6334702499757 1.1805399074401948
2306.9608584999755 1.0569967063320789
2308.2882467499753 0.9518236632551416
2309.615634999975 0.8615608384863022
2310.943023249975 0.783524150848902
2312.2704114999747 0.7156060630498916
2313.5977997499745 0
2314.9251879999742 0
2316.252576249974 0
2317.579964499974 0
2318.9073527499736 0
2320.2347409999734 0
2321.562129249973 0
2322.889517499973 0
2324.2169057499727 0
2325.5442939999725 0
2326.8716822499723 0
2328.199070499972 0
2329.526458749972 0
2330.8538469999717 0
2332.1812352499715 0
2333.5086234999712 0
2334.836011749971 0
2336.163399999971 0
2337.4907882499706 0
2338.8181764999704 0
2340.14556474997 0
2341.47295299997 0
2342.8003412499697 0
2344.1277294999695 0
2345.4551177499693 0
2346.782505999969 0
2348.109894249969 0
2349.4372824999687 0
2350.7646707499684 0
2352.0920589999682 0
2353.419447249968 0
2354.746835499968 0
2356.0742237499676 1.4045682758620688
2357.4016119999674 1.5366225865949545
2358.729000249967 1.6881578397258594
2360.056388499967 1.8631900672374289
2361.3837767499667 2.066822179941255
2362.7111649999665 2.305615496527608
2364.0385532499663 2.5881175954648468
2365.365941499966 2.925625996241413
2366.693329749966 3.333315419345187
2368.0207179999657 3.8319392022982055
2369.3481062499654 4.450461938865306
2370.675494499965 5.230248135896642
2372.002882749965 6.231939109040801
2373.330270999965 7.547151612451238
2374.6576592499646 9.319197240729794
2375.9850474999644 11.781493835415143
2377.312435749964 15.332527364442806
2378.639823999964 20.690568924233904
2379.9672122499637 29.231203796994677
2381.2946004999635 43.74974460987836
2382.6219887499633 70.06248073122
2383.949376999963 118.24367008892565
2385.276765249963 184.8534824658897
2386.6041534999626 194.90491549919375
2387.9315417499624 131.23077683457305
2389.258929999962 77.65144700156122
2390.586318249962 47.836827922276015
2391.913706499962 31.546565520190203
2393.2410947499616 22.0933994827351
2394.5684829999614 16.2353365106216
2395.895871249961 12.39247411746751
2397.223259499961 9.750136100011577
2398.5506477499607 7.8616571754654965
2399.8780359999605 6.468093677723576
2401.2054242499603 5.411872990577885
2402.53281249996 4.593029896082598
2403.86020074996 3.9458326097841057
2405.1875889999596 3.4257003934594903
2406.5149772499594 3.0015723397874967
2407.842365499959 2.6512907936223
2409.169753749959 2.9920882222591447
2410.497141999959 2.8047971706816615
2411.8245302499586 2.662994337814067
2413.1519184999584 2.5615777438366125
2414.479306749958 2.4974856865709616
2415.806694999958 2.4694660470365113
2417.1340832499577 1.1670765650722814
2418.4614714999575 1.3192714057362376
2419.7888597499573 1.5031134275848599
2421.116247999957 1.7279610670011964
2422.443636249957 2.006875515122394
2423.7710244999566 2.3585095358936385
2425.0984127499564 2.810208509019713
2426.425800999956 3.4032857685345297
2427.753189249956 4.202365736394816
2429.080577499956 5.312705025826684
2430.4079657499556 6.913995485261836
2431.7353539999554 9.330131734276591
2433.062742249955 13.181415319035006
2434.390130499955 19.728354597008074
2435.7175187499547 31.593726457993075
2437.0449069999545 53.320381025475626
2438.3722952499543 83.3571734669156
2439.699683499954 87.88973101341905
2441.027071749954 59.176740859161974
2442.3544599999536 35.015867979985416
2443.6818482499534 21.571369443688788
2445.009236499953 14.225496318886767
2446.336624749953 9.962719168658587
2447.664012999953 7.321105038198877
2448.9914012499526 5.588218306271925
2450.3187894999523 4.396691776497494
2451.646177749952 3.5451077911590003
2452.973565999952 2.9166992122734485
2454.3009542499517 2.4404108034034966
2455.6283424999515 2.071164603875583
2456.9557307499513 1.7793197560445158
2458.283118999951 1.54477318000204
2459.610507249951 1.3535183804142346
2460.9378954999506 1.1955636628917252
2462.2652837499504 1.0636315592115086
2463.59267199995 0.9523227870163062
2464.92006024995 0.8575649841754825
2466.2474484999498 0.7762408472762143
2467.5748367499496 0.7059320985212094
2468.9022249999493 0.6447399091093617
2470.229613249949 0
2471.557001499949 0
2472.8843897499487 0
2474.2117779999485 0
2475.5391662499483 0
2476.866554499948 0
2478.193942749948 0
2479.5213309999476 0
2480.8487192499474 0
2482.176107499947 0
2483.503495749947 0
2484.8308839999468 0
2486.1582722499465 0
2487.4856604999463 0
2488.813048749946 0
2490.140436999946 0
2491.4678252499457 0
2492.7952134999455 0
2494.1226017499453 0
2495.449989999945 0
2496.777378249945 0
2498.1047664999446 0
2499.4321547499444 0
2500.759542999944 0
2502.086931249944 0
2503.4143194999438 0
2504.7417077499435 0
2506.0690959999433 0
2507.396484249943 0
2508.723872499943 0
2510.0512607499427 0
2511.3786489999425 0
2512.7060372499423 0
2514.033425499942 0
2515.360813749942 0
2516.6882019999416 0
2518.0155902499414 0
2519.342978499941 0
2520.670366749941 0
2521.9977549999408 0
2523.3251432499405 0
2524.6525314999403 0
2525.97991974994 0
2527.30730799994 0
2528.6346962499397 0
2529.9620844999395 0
2531.2894727499393 0
2532.616860999939 0
2533.944249249939 0
2535.2716374999386 0
2536.5990257499384 0
2537.926413999938 0
2539.253802249938 0
2540.5811904999377 0
2541.9085787499375 0
2543.2359669999373 0
2544.563355249937 0
2545.890743499937 0
2547.2181317499367 0
2548.5455199999365 0
2549.8729082499362 0
2551.200296499936 0
2552.527684749936 0
2553.8550729999356 0
2555.1824612499354 0
2556.509849499935 0
2557.837237749935 0
2559.1646259999347 0
2560.4920142499345 0
2561.8194024999343 0
2563.146790749934 0
2564.474178999934 0
2565.8015672499337 0
2567.1289554999335 0
2568.4563437499332 0
2569.783731999933 0
2571.111120249933 0
2572.4385084999326 0
2573.7658967499324 0
2575.093284999932 0
2576.420673249932 0
2577.7480614999317 0
2579.0754497499315 0
2580.4028379999313 0
2581.730226249931 0
2583.057614499931 0
2584.3850027499307 0
2585.7123909999304 0
2587.0397792499302 0
2588.36716749993 0
2589.69455574993 0
2591.0219439999296 0
2592.3493322499294 0
2593.676720499929 0
2595.004108749929 0
2596.3314969999287 0
2597.6588852499285 0
2598.9862734999283 0
2600.313661749928 0
2601.641049999928 0
2602.9684382499277 0
2604.2958264999274 0
2605.6232147499272 0
2606.950602999927 0
2608.277991249927 0
2609.6053794999266 0
2610.9327677499264 0
2612.260155999926 0
2613.587544249926 0
2614.9149324999257 0
2616.2423207499255 0
2617.5697089999253 0
2618.897097249925 0
2620.224485499925 0
2621.5518737499247 0
2622.8792619999244 0
2624.206650249924 0
2625.534038499924 0
2626.861426749924 0
2628.1888149999236 0
2629.5162032499234 0
2630.843591499923 0
2632.170979749923 0
2633.4983679999227 0
2634.8257562499225 0
2636.1531444999223 0
2637.480532749922 0
2638.807920999922 0
2640.1353092499216 0
2641.4626974999214 0
2642.790085749921 0
2644.117473999921 0
2645.444862249921 0
2646.7722504999206 0
2648.0996387499204 0
2649.42702699992 0
2650.75441524992 0
2652.0818034999197 0
2653.4091917499195 0
2654.7365799999193 0
2656.063968249919 0
2657.391356499919 0
2658.7187447499186 0
2660.0461329999184 0
2661.373521249918 0
2662.700909499918 0
2664.028297749918 0
2665.3556859999176 0
2666.6830742499174 0
2668.010462499917 0
2669.337850749917 0
2670.6652389999167 0
2671.9926272499165 0
2673.3200154999163 0
2674.647403749916 0
2675.974791999916 0
2677.3021802499156 0
2678.6295684999154 0
2679.956956749915 0
2681.284344999915 0
2682.611733249915 0
2683.9391214999146 0
2685.2665097499143 0
2686.593897999914 0
2687.921286249914 0
2689.2486744999137 0
2690.5760627499135 0
2691.9034509999133 0
2693.230839249913 0
2694.558227499913 0
2695.8856157499126 0
2697.2130039999124 0
2698.540392249912 0
2699.867780499912 0
2701.1951687499118 0
2702.5225569999116 0
2703.8499452499113 0
2705.177333499911 0
2706.504721749911 0
2707.8321099999107 0
2709.1594982499105 0
2710.4868864999103 0
2711.81427474991 0
2713.14166299991 0
2714.4690512499096 0
2715.7964394999094 0
2717.123827749909 0
2718.451215999909 0
2719.7786042499088 0
2721.1059924999086 0
2722.4333807499083 0
2723.760768999908 0
2725.088157249908 0
2726.4155454999077 0
2727.7429337499075 0
2729.0703219999073 0
2730.397710249907 0
2731.725098499907 0
2733.0524867499066 0
2734.3798749999064 0
2735.707263249906 0
2737.034651499906 0
2738.3620397499058 0
2739.6894279999055 0
2741.0168162499053 0
2742.344204499905 0
2743.671592749905 0
2744.9989809999047 0
2746.3263692499045 0
2747.6537574999043 0
2748.981145749904 0
2750.308533999904 0
2751.6359222499036 0
2752.9633104999034 0
2754.290698749903 0
2755.618086999903 0
2756.9454752499028 0
2758.2728634999025 0
2759.6002517499023 0
2760.927639999902 0
2762.255028249902 0
2763.5824164999017 0
2764.9098047499015 0
2766.2371929999013 0
2767.564581249901 0
2768.891969499901 0
2770.2193577499006 0
2771.5467459999004 0
2772.8741342499 0
2774.2015224999 0
2775.5289107498998 0
2776.8562989998995 0
2778.1836872498993 0
2779.511075499899 0
2780.838463749899 0
2782.1658519998987 0
2783.4932402498985 0
2784.8206284998982 0
2786.148016749898 0
2787.475404999898 0.18754482758620689
2788.8027932498976 0.20517736518799343
2790.1301814998974 0.22541109352293315
2791.457569749897 0.24878225282847813
2792.784957999897 0.27597220872052225
2794.1123462498967 0.30785706056970635
2795.4397344998965 0.3455781228693713
2796.7671227498963 0.3906438956910504
2798.094510999896 0.44508058195166617
2799.421899249896 0.5116592688061096
2800.7492874998957 0.5942474505137086
2802.0766757498955 0.6983683183914816
2803.4040639998952 0.8321189975727259
2804.731452249895 1.0077326052771596
2806.058840499895 1.2443448067213487
2807.3862287498946 1.5731226940283498
2808.7136169998944 2.0472740630998048
2810.041005249894 2.762705984637404
2811.368393499894 3.9030933351245656
2812.6957817498937 5.841679931695945
2814.0231699998935 9.355085185114174
2815.3505582498933 15.788473298941014
2816.677946499893 24.68254131433885
2818.005334749893 26.024657826309987
2819.3327229998927 17.522575326812312
2820.6601112498925 10.368401088077405
2821.9874994998922 6.3874072902920425
2823.314887749892 4.212251759559214
2824.642275999892 2.9500187837003704
2825.9696642498916 2.167821556997481
2827.2970524998914 1.654703770310138
2828.624440749891 1.3018858714407513
2829.951828999891 1.049726926666919
2831.2792172498907 0.863651510892609
2832.6066054998905 0.7226197575290039
2833.9339937498903 0.6132838216286863
2835.26138199989 0.5268668737600508
2836.58877024989 0.45741627565882254
2837.9161584998897 0.40078462302408885
2839.2435467498894 0.3540133173416635
2840.5709349998892 0.3149474581679831
2841.898323249889 0.2819882867602955
2843.225711499889 0.2539299531316619
2844.5530997498886 0.22984940570684037
2845.8804879998884 0.2090305784394588
2847.207876249888 0.1909112171361122
2848.535264499888 0
2849.8626527498877 0
2851.1900409998875 0
2852.5174292498873 0
2853.844817499887 0
2855.172205749887 0
2856.4995939998867 0
2857.8269822498864 0
2859.154370499886 0
2860.481758749886 0
2861.809146999886 0
2863.1365352498856 0
2864.4639234998854 0
2865.791311749885 0
2867.118699999885 0
##END=
